Data from Background no Sample 10 sec exposure (900 SPF and 750LPF in Output, 700SpF Input)_USBC44471_14-36-53-739.txt Node
Date: Wed Jul 29 14:36:53 MDT 2020
User: Montana Instruments
Spectrometer: USBC4447
Scans to average: 1
Trigger mode: 4
Integration Time (sec): 1.000000E1
Electric dark correction enabled: true
Boxcar width: 0
XAxis mode: Wavelengths
Number of Pixels in Spectrum: 3648
>>>>>Begin Spectral Data<<<<<
344.991	-5405.95
345.205	-5405.95
345.419	-5405.95
345.633	-5444.87
345.847	-5422.34
346.061	-413.01
346.275	877.21
346.489	-1336.64
346.703	-17.75
346.917	-1752.38
347.131	1036.95
347.345	-673.1
347.559	-795.98
347.773	1438.36
347.986	-124.24
348.2	3019.39
348.414	-1258.82
348.628	-714.06
348.842	-914.76
349.056	-1113.41
349.269	318.12
349.483	1231.51
349.697	1548.95
349.911	1311.38
350.125	-1172.8
350.338	422.56
350.552	920.22
350.766	-615.76
350.979	-1668.41
351.193	-486.73
351.407	5405.27
351.621	-249.17
351.834	-1525.05
352.048	2384.52
352.262	-388.43
352.475	3627.64
352.689	1217.18
352.902	1493.65
353.116	4.78
353.33	-1531.2
353.543	-1119.56
353.757	309.93
353.971	113.32
354.184	258.73
354.398	-324.94
354.611	850.59
354.825	2976.38
355.038	1204.89
355.252	-335.18
355.465	-376.14
355.679	-1836.35
355.892	647.84
356.106	1098.39
356.319	7655.99
356.533	-566.6
356.746	-206.16
356.96	-845.13
357.173	-1436.99
357.386	1309.33
357.6	-925
357.813	-1021.25
358.027	-1854.78
358.24	-847.18
358.453	2577.03
358.667	-1408.32
358.88	1096.35
359.094	-1140.04
359.307	225.96
359.52	-449.87
359.733	2105.99
359.947	-2327.86
360.16	1374.87
360.373	1569.43
360.587	-1170.76
360.8	-531.79
361.013	-343.38
361.226	-800.07
361.44	2714.24
361.653	1600.15
361.866	-953.67
362.079	-2225.46
362.292	309.93
362.506	3365.5
362.719	586.4
362.932	2869.89
363.145	33.45
363.358	-873.8
363.571	-1428.8
363.785	-204.11
363.998	1094.3
364.211	1888.91
364.424	-1398.08
364.637	1204.89
364.85	-732.49
365.063	2216.58
365.276	60.07
365.489	-1393.98
365.702	-343.38
365.915	223.91
366.128	-263.51
366.341	1933.97
366.554	3228.28
366.767	-859.46
366.98	25.26
367.193	1110.68
367.406	-1463.61
367.619	3965.55
367.832	1948.3
368.045	189.1
368.258	371.36
368.471	1008.28
368.684	-2149.68
368.896	-1975.61
369.109	37.55
369.322	-1070.4
369.535	-306.51
369.748	-1549.63
369.961	-681.29
370.173	-2823.47
370.386	-2719.02
370.599	2798.21
370.812	-550.22
371.025	-857.42
371.237	162.47
371.45	266.92
371.663	860.83
371.876	-617.8
372.088	4737.63
372.301	-755.02
372.514	-1613.12
372.726	570.02
372.939	-326.99
373.152	-349.52
373.364	983.71
373.577	3418.74
373.79	-728.39
374.002	-1092.93
374.215	-2780.46
374.428	-2008.37
374.64	1413.78
374.853	-951.62
375.065	-507.21
375.278	3635.83
375.491	10.92
375.703	1424.02
375.916	-2213.17
376.128	-691.53
376.341	-1705.28
376.553	930.46
376.766	-1449.28
376.978	-1715.52
377.191	744.1
377.403	-1727.8
377.616	3117.69
377.828	4207.21
378.04	-1271.11
378.253	-607.56
378.465	406.18
378.678	1075.87
378.89	-1275.2
379.103	-781.64
379.315	258.73
379.527	-1699.13
379.74	-677.2
379.952	-200.02
380.164	-1410.37
380.377	1966.73
380.589	-34.13
380.801	23.21
381.014	1647.25
381.226	1079.96
381.438	-103.76
381.65	-1533.25
381.863	70.31
382.075	-1041.73
382.287	-2112.82
382.499	-873.8
382.712	-120.15
382.924	86.7
383.136	-920.9
383.348	-2940.2
383.56	-5.46
383.772	-978.25
383.985	17.07
384.197	1512.08
384.409	-644.43
384.621	469.67
384.833	135.85
385.045	-15.7
385.257	-1353.02
385.469	-660.81
385.681	88.75
385.893	35.5
386.105	-1162.56
386.318	-2538.8
386.53	-466.25
386.742	-3026.22
386.954	-2252.08
387.166	2796.16
387.378	-60.76
387.589	-9.56
387.801	-3110.18
388.013	-1412.42
388.225	-1260.87
388.437	-2145.59
388.649	-1813.82
388.861	2570.88
389.073	1118.87
389.285	-687.43
389.497	817.82
389.709	1405.59
389.92	-1324.35
390.132	-1043.78
390.344	-791.88
390.556	-748.87
390.768	135.85
390.98	-976.2
391.191	1743.5
391.403	631.46
391.615	328.36
391.827	-1328.45
392.038	-869.7
392.25	-361.81
392.462	-2317.62
392.674	-2155.83
392.885	-1512.77
393.097	-2403.63
393.309	-718.15
393.52	1135.26
393.732	-1645.88
393.944	578.21
394.155	350.89
394.367	-1410.37
394.579	563.87
394.79	-1219.91
395.002	123.56
395.213	-2714.92
395.425	-150.87
395.637	-1170.76
395.848	-2225.46
396.06	305.83
396.271	252.58
396.483	-1121.6
396.694	-367.95
396.906	-542.03
397.117	1426.07
397.329	1438.36
397.54	-824.65
397.752	-1817.91
397.963	-1203.52
398.175	160.42
398.386	963.23
398.598	-898.38
398.809	-2243.89
399.02	963.23
399.232	832.16
399.443	-38.23
399.655	-1142.08
399.866	-1164.61
400.077	-630.09
400.289	1288.85
400.5	-197.97
400.711	815.77
400.923	-1508.67
401.134	-1158.47
401.345	-1856.82
401.556	3330.68
401.768	-1086.79
401.979	-1076.55
402.19	866.97
402.401	-527.69
402.613	156.33
402.824	-818.5
403.035	-2542.89
403.246	-1717.56
403.457	342.69
403.669	125.61
403.88	-1269.06
404.091	-2196.79
404.302	-1445.18
404.513	-605.52
404.724	-976.2
404.935	-836.94
405.146	688.8
405.358	-1854.78
405.569	-1563.97
405.78	-2190.64
405.991	-1056.07
406.202	31.4
406.413	-413.01
406.624	-1543.49
406.835	-343.38
407.046	2984.57
407.257	-165.2
407.468	1174.17
407.679	-423.25
407.89	1903.25
408.101	2032.27
408.312	-521.55
408.522	-1989.94
408.733	410.28
408.944	131.75
409.155	-644.43
409.366	991.9
409.577	-1983.8
409.788	-511.31
409.999	135.85
410.209	-904.52
410.42	-126.29
410.631	-1875.26
410.842	-488.78
411.053	5069.41
411.264	1000.09
411.474	-1273.15
411.685	-245.07
411.896	-1361.22
412.107	-2207.03
412.317	-1021.25
412.528	1903.25
412.739	-2252.08
412.949	-1469.76
413.16	72.36
413.371	2169.48
413.581	1186.46
413.792	-705.87
414.003	3592.82
414.213	1794.7
414.424	-2078.01
414.635	-562.51
414.845	-1314.11
415.056	-79.19
415.266	-1695.04
415.477	-2516.27
415.687	756.38
415.898	479.91
416.109	-1830.2
416.319	594.59
416.53	-2841.9
416.74	215.72
416.951	-1348.93
417.161	-62.8
417.372	160.42
417.582	533.15
417.792	1720.98
418.003	2249.35
418.213	-795.98
418.424	496.29
418.634	-1764.67
418.844	1024.67
419.055	2005.64
419.265	-1250.63
419.476	539.3
419.686	-1023.3
419.896	-154.96
420.107	-1187.14
420.317	-816.46
420.527	-3.41
420.738	-494.93
420.948	1041.05
421.158	1467.03
421.368	-574.8
421.579	-322.9
421.789	-1181
421.999	-3337.51
422.209	-503.12
422.419	-482.64
422.63	-214.35
422.84	-519.5
423.05	-1156.42
423.26	-1219.91
423.47	-111.96
423.681	-2141.49
423.891	875.17
424.101	1641.11
424.311	-978.25
424.521	-337.23
424.731	-826.7
424.941	-601.42
425.151	1608.34
425.361	-1793.34
425.571	-2676.01
425.781	4084.33
425.991	909.98
426.201	1673.87
426.411	373.41
426.621	-1369.41
426.831	-1914.17
427.041	60.07
427.251	-294.22
427.461	1327.77
427.671	1118.87
427.881	-892.23
428.091	-95.57
428.301	2476.68
428.511	-118.1
428.721	-3122.47
428.93	-484.69
429.14	-1234.24
429.35	342.69
429.56	-1379.65
429.77	-494.93
429.98	-1459.52
430.189	-1250.63
430.399	2677.38
430.609	1473.17
430.819	268.97
431.029	-1469.76
431.238	-1031.49
431.448	-775.5
431.658	-2682.16
431.867	-748.87
432.077	152.23
432.287	-1168.71
432.497	-1113.41
432.706	-75.09
432.916	-449.87
433.125	-2960.68
433.335	-1260.87
433.545	1305.24
433.754	3918.45
433.964	-1193.28
434.174	-943.43
434.383	2384.52
434.593	-1328.45
434.802	1030.81
435.012	-1355.07
435.221	268.97
435.431	-669
435.64	-1033.54
435.85	-1125.7
436.059	309.93
436.269	778.91
436.478	-1125.7
436.688	-2413.87
436.897	-951.62
437.107	-2311.47
437.316	27922.69
437.525	96.94
437.735	-30.04
437.944	-91.48
438.154	2605.7
438.363	201.38
438.572	2763.39
438.782	309.93
438.991	-1039.69
439.2	-433.49
439.41	-970.05
439.619	-1236.29
439.828	217.77
440.038	-50.52
440.247	2308.74
440.456	-1547.58
440.665	533.15
440.875	991.9
441.084	393.89
441.293	-1891.64
441.502	-1320.26
441.711	-1064.26
441.92	383.65
442.13	-482.64
442.339	-1332.55
442.548	-468.3
442.757	1895.05
442.966	-3052.84
443.175	-1178.95
443.384	1440.4
443.593	1585.81
443.803	-2110.77
444.012	-236.88
444.221	-654.67
444.43	4680.29
444.639	301.73
444.848	2085.51
445.057	-1363.26
445.266	-1635.64
445.475	-2501.94
445.684	-1326.4
445.893	2228.87
446.102	295.59
446.311	-3138.85
446.52	-21.85
446.728	2843.26
446.937	-2784.55
447.146	-3462.43
447.355	422.56
447.564	-271.7
447.773	1469.08
447.982	1497.75
448.191	592.55
448.399	-1367.36
448.608	-922.95
448.817	-709.96
449.026	901.79
449.235	-1590.59
449.443	996
449.652	-578.89
449.861	-1027.4
450.07	236.2
450.278	1886.86
450.487	-3130.66
450.696	2.73
450.904	-1299.78
451.113	-881.99
451.322	651.94
451.53	-628.04
451.739	2847.36
451.948	-1250.63
452.156	174.76
452.365	4393.58
452.574	866.97
452.782	86.7
452.991	-654.67
453.199	735.9
453.408	209.58
453.616	-1580.35
453.825	1213.08
454.033	1376.92
454.242	3324.54
454.45	3504.76
454.659	494.24
454.867	4139.63
455.076	-1154.37
455.284	-920.9
455.493	-1760.57
455.701	-1142.08
455.91	3146.36
456.118	-1051.97
456.326	-2235.7
456.535	2568.84
456.743	1129.11
456.951	-2190.64
457.16	1104.54
457.368	740
457.576	-1791.29
457.785	2654.85
457.993	-132.44
458.201	-1455.42
458.41	774.81
458.618	-1080.64
458.826	-286.03
459.034	-3032.36
459.243	-1578.3
459.451	80.55
459.659	53.93
459.867	-636.24
460.075	-875.85
460.284	-197.97
460.492	-2161.97
460.7	-494.93
460.908	-605.52
461.116	-2571.57
461.324	-1271.11
461.532	-2460.98
461.741	-2010.42
461.949	-847.18
462.157	1991.31
462.365	0.68
462.573	-261.46
462.781	436.9
462.989	-908.62
463.197	-1559.87
463.405	-2231.6
463.613	-58.71
463.821	-2551.09
464.029	-19.8
464.237	-1195.33
464.445	-691.53
464.653	850.59
464.861	-337.23
465.069	1215.13
465.276	4827.74
465.484	-925
465.692	-750.92
465.9	-988.49
466.108	-638.28
466.316	912.03
466.524	-732.49
466.731	-462.16
466.939	1878.67
467.147	-132.44
467.355	-83.28
467.563	1456.79
467.77	783.01
467.978	-2512.18
468.186	367.27
468.393	2251.4
468.601	-451.92
468.809	-2032.95
469.017	-937.29
469.224	-1908.02
469.432	1211.03
469.64	-1414.46
469.847	-1981.75
470.055	567.97
470.263	-1224
470.47	-1246.53
470.678	1288.85
470.885	-173.39
471.093	2587.27
471.3	815.77
471.508	-1082.69
471.716	-619.85
471.923	225.96
472.131	371.36
472.338	-1422.66
472.546	-855.37
472.753	2859.65
472.961	-1410.37
473.168	-34.13
473.375	-482.64
473.583	1120.92
473.79	-447.82
473.998	152.23
474.205	346.79
474.412	1839.76
474.62	-863.56
474.827	-1348.93
475.035	1475.22
475.242	-859.46
475.449	-1469.76
475.657	4119.15
475.864	3199.61
476.071	-5.46
476.278	-1103.17
476.486	-773.45
476.693	185
476.9	209.58
477.107	328.36
477.315	-1039.69
477.522	43.69
477.729	1540.76
477.936	-681.29
478.143	-1588.54
478.351	1378.97
478.558	-1277.25
478.765	-546.12
478.972	-318.8
479.179	531.11
479.386	754.34
479.593	918.17
479.8	701.09
480.007	-1672.51
480.215	-126.29
480.422	1086.11
480.629	-2182.45
480.836	944.8
481.043	2876.03
481.25	-679.24
481.457	-1518.91
481.664	-750.92
481.871	830.11
482.078	-1357.12
482.284	-1510.72
482.491	2071.18
482.698	1905.29
482.905	-1170.76
483.112	-2274.61
483.319	182.95
483.526	-34.13
483.733	2325.13
483.94	-2618.67
484.146	-1692.99
484.353	76.46
484.56	-714.06
484.767	-3142.95
484.974	2134.67
485.18	1589.91
485.387	-398.67
485.594	-1269.06
485.801	1839.76
486.007	158.38
486.214	-847.18
486.421	-1924.41
486.627	-271.7
486.834	690.85
487.041	594.59
487.247	-1455.42
487.454	-1549.63
487.661	1026.72
487.867	514.72
488.074	-1776.95
488.281	1022.62
488.487	-236.88
488.694	-933.19
488.9	-480.59
489.107	-1041.73
489.313	-972.1
489.52	-691.53
489.726	-1668.41
489.933	2914.94
490.139	3023.48
490.346	461.48
490.552	400.04
490.759	-386.38
490.965	125.61
491.172	16742.83
491.378	-570.7
491.584	35.5
491.791	1690.26
491.997	-306.51
492.204	-486.73
492.41	3207.8
492.616	-1719.61
492.823	-1584.45
493.029	-1318.21
493.235	2206.34
493.442	-216.4
493.648	-802.12
493.854	-560.46
494.06	4878.94
494.267	864.93
494.473	-816.46
494.679	-1357.12
494.885	377.51
495.091	3428.98
495.298	850.59
495.504	-2430.26
495.71	-392.53
495.916	-1885.5
496.122	2714.24
496.328	623.27
496.535	899.74
496.741	-433.49
496.947	774.81
497.153	-290.13
497.359	537.25
497.565	518.82
497.771	1725.07
497.977	-42.32
498.183	-793.93
498.389	883.36
498.595	-1549.63
498.801	617.12
499.007	901.79
499.213	-406.86
499.419	-574.8
499.625	12.97
499.831	3191.42
500.037	-685.39
500.243	-1353.02
500.448	-546.12
500.654	971.42
500.86	1747.6
501.066	-458.06
501.272	2349.7
501.478	-1948.98
501.684	-582.99
501.889	-1785.15
502.095	-1563.97
502.301	-435.53
502.507	703.14
502.712	-599.37
502.918	-1371.46
503.124	-1183.04
503.33	922.27
503.535	-656.72
503.741	68.27
503.947	-367.95
504.152	-329.04
504.358	-2264.37
504.564	-542.03
504.769	516.77
504.975	4506.21
505.181	-44.37
505.386	-1756.47
505.592	-738.63
505.797	715.42
506.003	-2749.74
506.208	1931.92
506.414	-636.24
506.619	27.31
506.825	459.43
507.03	-2118.97
507.236	-1107.27
507.441	373.41
507.647	-683.34
507.852	76.46
508.058	1254.04
508.263	1159.83
508.469	-593.23
508.674	-2280.75
508.879	-492.88
509.085	-71
509.29	-1660.22
509.495	-1326.4
509.701	-1011.01
509.906	1039
510.111	-646.48
510.317	1010.33
510.522	357.03
510.727	2083.47
510.933	-728.39
511.138	287.4
511.343	-697.67
511.548	635.55
511.754	-1533.25
511.959	2534.02
512.164	-40.28
512.369	3607.16
512.574	3652.21
512.779	-1334.59
512.985	-390.48
513.19	938.65
513.395	111.27
513.6	-1006.92
513.805	-326.99
514.01	1991.31
514.215	-279.89
514.42	2916.99
514.625	-478.54
514.83	2845.31
515.035	-85.33
515.24	-89.43
515.445	2888.32
515.65	2028.17
515.855	141.99
516.06	-435.53
516.265	529.06
516.47	1335.96
516.675	236.2
516.88	-2403.63
517.085	135.85
517.29	-570.7
517.495	531.11
517.7	1733.26
517.904	-218.45
518.109	631.46
518.314	-433.49
518.519	-302.42
518.724	649.89
518.928	774.81
519.133	-398.67
519.338	201.38
519.543	287.4
519.747	981.66
519.952	3119.74
520.157	6593.09
520.362	1008.28
520.566	2863.74
520.771	-1826.11
520.976	1221.27
521.18	3854.96
521.385	-1013.06
521.59	-953.67
521.794	469.67
521.999	2267.78
522.203	-857.42
522.408	-431.44
522.612	-992.58
522.817	774.81
523.022	2278.02
523.226	-226.64
523.431	-1250.63
523.635	164.52
523.84	2304.65
524.044	-855.37
524.249	1737.36
524.453	3066.49
524.657	199.34
524.862	6378.06
525.066	-947.53
525.271	-167.25
525.475	1213.08
525.679	33.45
525.884	-1848.63
526.088	1278.62
526.292	2728.58
526.497	529.06
526.701	-800.07
526.905	-257.36
527.11	205.48
527.314	-245.07
527.518	3560.05
527.722	-832.84
527.927	1344.15
528.131	-2016.57
528.335	5630.55
528.539	1802.9
528.744	3035.77
528.948	-1764.67
529.152	-1070.4
529.356	2636.42
529.56	903.84
529.764	121.51
529.968	43.69
530.173	8100.4
530.377	6648.39
530.581	-1592.64
530.785	1716.88
530.989	-349.52
531.193	418.47
531.397	-1363.26
531.601	338.6
531.805	1653.39
532.009	1796.75
532.213	-97.62
532.417	737.95
532.621	2112.14
532.825	3279.48
533.029	62.12
533.233	776.86
533.436	742.05
533.64	207.53
533.844	1817.23
534.048	-580.94
534.252	1333.91
534.456	3572.34
534.66	2380.42
534.863	144.04
535.067	604.83
535.271	2574.98
535.475	-400.72
535.679	1335.96
535.882	3306.1
536.086	2028.17
536.29	2294.41
536.493	635.55
536.697	1550.99
536.901	1133.21
537.104	1936.01
537.308	1092.25
537.512	1536.66
537.715	3846.77
537.919	1905.29
538.123	1911.44
538.326	1395.35
538.53	2738.82
538.733	3560.05
538.937	2380.42
539.141	1907.34
539.344	3086.97
539.548	2271.88
539.751	4940.38
539.955	5827.15
540.158	7483.96
540.362	5102.17
540.565	3152.51
540.768	4512.36
540.972	11211.26
541.175	9167.39
541.379	6703.68
541.582	6324.81
541.785	8077.87
541.989	9851.41
542.192	5315.16
542.396	6482.5
542.599	8772.13
542.802	8925.73
543.005	7684.66
543.209	6652.49
543.412	8354.35
543.615	8294.96
543.819	8350.25
544.022	6443.59
544.225	8206.89
544.428	8114.73
544.631	10723.85
544.835	7447.1
545.038	6449.74
545.241	6715.97
545.444	9968.15
545.647	8294.96
545.85	6992.45
546.054	5861.97
546.257	4131.44
546.46	7045.7
546.663	6398.54
546.866	7187
547.069	7221.82
547.272	5491.29
547.475	6175.31
547.678	5448.28
547.881	4119.15
548.084	4616.8
548.287	5159.52
548.49	2474.63
548.693	4184.68
548.896	1778.32
549.099	4723.3
549.302	2640.51
549.505	2161.29
549.707	1643.15
549.91	4311.66
550.113	1837.71
550.316	1757.84
550.519	4252.27
550.722	4340.33
550.924	1823.37
551.127	3181.18
551.33	2110.09
551.533	1585.81
551.736	1125.02
551.938	1159.83
552.141	2865.79
552.344	838.3
552.546	2929.28
552.749	1620.63
552.952	1727.12
553.154	1751.7
553.357	1862.29
553.56	1735.31
553.762	7354.94
553.965	5835.35
554.168	2038.41
554.37	4029.04
554.573	2898.56
554.775	4479.59
554.978	3093.12
555.18	430.76
555.383	1151.64
555.585	5382.74
555.788	2601.6
555.99	1428.12
556.193	1901.2
556.395	3086.97
556.598	1102.49
556.8	1684.11
557.003	1915.53
557.205	5730.9
557.407	1448.6
557.61	1872.53
557.812	2415.24
558.015	4493.93
558.217	1204.89
558.419	2366.09
558.622	3746.42
558.824	2488.96
559.026	918.17
559.228	1866.38
559.431	3410.55
559.633	3181.18
559.835	1684.11
560.037	3318.39
560.24	4694.63
560.442	4067.95
560.644	1231.51
560.846	3420.79
561.048	3736.18
561.25	4514.41
561.453	3228.28
561.655	2036.36
561.857	2452.1
562.059	2103.95
562.261	4657.76
562.463	2916.99
562.665	2769.54
562.867	3863.15
563.069	3850.86
563.271	4751.97
563.473	3799.66
563.675	3297.91
563.877	3269.24
564.079	2085.51
564.281	5329.5
564.483	3588.72
564.685	2908.8
564.887	2443.91
565.089	4555.37
565.291	4657.76
565.493	1796.75
565.694	5415.51
565.896	1774.22
566.098	4063.85
566.3	5284.44
566.502	2716.29
566.704	5792.34
566.905	504.48
567.107	1360.53
567.309	1297.05
567.511	4342.38
567.712	1401.49
567.914	2728.58
568.116	318.12
568.317	4905.57
568.519	3068.54
568.721	162.47
568.922	94.89
569.124	2368.13
569.326	5302.87
569.527	2554.5
569.729	1639.06
569.93	6756.93
570.132	1913.49
570.334	4473.45
570.535	967.32
570.737	2048.65
570.938	6478.41
571.14	2138.76
571.341	3555.96
571.543	6988.35
571.744	2613.89
571.946	4174.44
572.147	1424.02
572.348	5636.69
572.55	4348.52
572.751	4887.14
572.953	2433.67
573.154	4426.34
573.355	6779.46
573.557	9333.28
573.758	3699.31
573.959	3588.72
574.161	5122.65
574.362	5462.62
574.563	7490.1
574.765	5894.74
574.966	6357.58
575.167	2611.84
575.368	5569.11
575.569	3869.3
575.771	6120.01
575.972	2998.91
576.173	4029.04
576.374	5593.69
576.575	4967.01
576.776	1450.64
576.978	2708.1
577.179	3252.86
577.38	4379.24
577.581	2962.05
577.782	3515
577.983	5251.67
578.184	5831.25
578.385	3527.28
578.586	4252.27
578.787	2630.27
578.988	4248.17
579.189	1700.5
579.39	2818.69
579.591	3986.03
579.792	2761.34
579.993	4799.07
580.194	4743.78
580.395	5941.84
580.596	4041.32
580.796	5298.78
580.997	2851.46
581.198	3713.65
581.399	5534.29
581.6	6267.47
581.801	2572.93
582.001	6761.03
582.202	2388.61
582.403	1602.19
582.604	7819.83
582.804	3674.74
583.005	4094.57
583.206	754.34
583.407	5190.24
583.607	3179.13
583.808	2734.72
584.009	4895.33
584.209	4575.84
584.41	1512.08
584.61	3375.74
584.811	3318.39
585.012	2400.9
585.212	1790.61
585.413	3265.14
585.613	3506.81
585.814	2001.55
586.014	5149.28
586.215	2568.84
586.415	3121.79
586.616	2058.89
586.816	2736.77
587.017	4749.92
587.217	1622.67
587.418	6138.44
587.618	2648.71
587.819	2574.98
588.019	1141.4
588.219	447.14
588.42	2839.17
588.62	950.94
588.82	985.76
589.021	1397.4
589.221	3291.77
589.421	1510.04
589.622	3900.02
589.822	1262.23
590.022	5522.01
590.222	3601.01
590.423	1823.37
590.623	979.61
590.823	3054.2
591.023	2712.19
591.223	656.03
591.423	5937.74
591.624	2677.38
591.824	2235.02
592.024	1094.3
592.224	2138.76
592.424	5337.69
592.624	2396.81
592.824	2859.65
593.024	2001.55
593.224	5128.8
593.424	4893.28
593.624	2431.62
593.824	2230.92
594.024	2865.79
594.224	897.69
594.424	2466.44
594.624	357.03
594.824	1704.59
595.024	1170.07
595.224	2335.37
595.424	723.62
595.624	651.94
595.824	1106.59
596.023	3928.69
596.223	3762.8
596.423	1512.08
596.623	2779.78
596.823	-406.86
597.023	-693.58
597.222	6507.08
597.422	963.23
597.622	-355.66
597.822	885.41
598.021	2341.51
598.221	803.49
598.421	-705.87
598.62	1587.86
598.82	416.42
599.02	4835.94
599.219	4481.64
599.419	2421.38
599.618	506.53
599.818	2562.69
600.018	-609.61
600.217	869.02
600.417	4145.77
600.616	1413.78
600.816	1872.53
601.015	1946.25
601.215	901.79
601.414	479.91
601.614	563.87
601.813	-697.67
602.013	2103.95
602.212	1153.69
602.412	211.62
602.611	2400.9
602.81	1995.4
603.01	3064.44
603.209	1540.76
603.408	-1172.8
603.608	2450.05
603.807	1069.72
604.006	5882.45
604.206	86.7
604.405	1440.4
604.604	1829.52
604.803	1530.52
605.003	174.76
605.202	-64.85
605.401	893.6
605.6	2417.29
605.8	420.52
605.999	268.97
606.198	1628.82
606.397	2030.22
606.596	688.8
606.795	2632.32
606.994	3707.51
607.193	625.31
607.393	3650.16
607.592	3885.68
607.791	1536.66
607.99	3678.83
608.189	3963.5
608.388	4715.11
608.587	3994.22
608.786	2175.63
608.985	543.39
609.184	1954.44
609.382	3205.75
609.581	2806.4
609.78	4756.07
609.979	4354.66
610.178	2882.17
610.377	2462.34
610.576	432.8
610.775	3097.21
610.973	3320.44
611.172	3887.73
611.371	2941.57
611.57	2087.56
611.769	4938.34
611.967	1544.85
612.166	4682.34
612.365	2597.51
612.564	2972.29
612.762	3193.47
612.961	3168.89
613.16	1997.45
613.358	2904.7
613.557	-269.65
613.756	2978.43
613.954	4358.76
614.153	1133.21
614.351	1368.73
614.55	455.33
614.749	3740.27
614.947	1938.06
615.146	662.18
615.344	1796.75
615.543	-91.48
615.741	2321.03
615.94	3076.73
616.138	864.93
616.337	2869.89
616.535	971.42
616.733	78.51
616.932	1389.21
617.13	3799.66
617.329	5098.08
617.527	-910.66
617.725	-1527.1
617.924	-1082.69
618.122	260.77
618.32	-687.43
618.519	-1398.08
618.717	2400.9
618.915	2058.89
619.114	1125.02
619.312	-105.81
619.51	565.92
619.708	2144.91
619.906	-462.16
620.105	-601.42
620.303	-322.9
620.501	3910.25
620.699	-1654.08
620.897	946.84
621.095	1972.88
621.293	-1078.6
621.492	1862.29
621.69	-15.7
621.888	1098.39
622.086	3242.62
622.284	1075.87
622.482	397.99
622.68	686.75
622.878	176.81
623.076	29.35
623.274	-97.62
623.472	379.56
623.67	1249.94
623.868	-2442.54
624.065	1069.72
624.263	387.75
624.461	909.98
624.659	-720.2
624.857	3175.03
625.055	2505.35
625.253	-208.21
625.45	-120.15
625.648	115.37
625.846	324.26
626.044	283.3
626.242	590.5
626.439	2214.54
626.637	617.12
626.835	-189.78
627.032	1979.02
627.23	-1508.67
627.428	3521.14
627.626	1190.55
627.823	506.53
628.021	2685.57
628.218	1921.68
628.416	1352.34
628.614	-1226.05
628.811	-1625.4
629.009	-795.98
629.206	-398.67
629.404	-1008.97
629.601	199.34
629.799	-1762.62
629.996	3412.6
630.194	1231.51
630.391	1094.3
630.589	-550.22
630.786	2036.36
630.984	561.83
631.181	-2229.56
631.378	-638.28
631.576	1968.78
631.773	-2096.44
631.97	-1408.32
632.168	-1692.99
632.365	189.1
632.562	506.53
632.76	-1084.74
632.957	473.76
633.154	60.07
633.352	592.55
633.549	-642.38
633.746	2177.67
633.943	768.67
634.14	-535.89
634.338	2151.05
634.535	-197.97
634.732	-320.85
634.929	2820.74
635.126	653.98
635.323	12.97
635.52	2402.95
635.717	463.52
635.915	-482.64
636.112	-71
636.309	-1721.66
636.506	-576.84
636.703	-2403.63
636.9	-437.58
637.097	5282.39
637.294	242.34
637.491	-945.48
637.688	2417.29
637.884	-1197.38
638.081	-656.72
638.278	-183.63
638.475	-382.29
638.672	-601.42
638.869	-869.7
639.066	6031.95
639.263	819.87
639.459	754.34
639.656	-2360.63
639.853	-1748.28
640.05	15286.72
640.246	1931.92
640.443	-251.22
640.64	-2993.45
640.837	205.48
641.033	-1848.63
641.23	-154.96
641.427	-232.79
641.623	682.66
641.82	-662.86
642.017	-1234.24
642.213	-560.46
642.41	-429.39
642.606	1225.37
642.803	1383.06
643	207.53
643.196	-1350.98
643.393	2173.58
643.589	387.75
643.786	-1051.97
643.982	4362.86
644.179	1532.56
644.375	-1019.21
644.571	-597.32
644.768	-1381.7
644.964	-288.08
645.161	-337.23
645.357	2833.02
645.553	500.39
645.75	2167.43
645.946	193.19
646.143	-50.52
646.339	305.83
646.535	342.69
646.731	1651.35
646.928	23.21
647.124	-1699.13
647.32	2429.57
647.516	1917.58
647.713	-1371.46
647.909	39.59
648.105	-587.08
648.301	-2745.64
648.497	545.44
648.693	-607.56
648.89	-558.41
649.086	-146.77
649.282	-984.39
649.478	-685.39
649.674	176.81
649.87	2065.04
650.066	1385.11
650.262	-1213.76
650.458	1811.09
650.654	-1488.19
650.85	217.77
651.046	-415.06
651.242	-273.75
651.438	109.22
651.634	-1639.74
651.83	-836.94
652.026	567.97
652.222	-367.95
652.417	-351.57
652.613	1170.07
652.809	-1494.33
653.005	-886.09
653.201	2429.57
653.397	-1193.28
653.592	-210.26
653.788	-1267.01
653.984	1606.29
654.18	5093.98
654.375	-1025.35
654.571	-204.11
654.767	-267.6
654.962	-1080.64
655.158	-2383.15
655.354	-679.24
655.549	1061.53
655.745	1192.6
655.941	3693.17
656.136	-898.38
656.332	-1473.85
656.527	-202.07
656.723	1499.8
656.918	-2133.3
657.114	-740.68
657.309	-290.13
657.505	918.17
657.7	1227.42
657.896	-1244.48
658.091	-1267.01
658.287	-634.19
658.482	-2436.4
658.678	-1158.47
658.873	256.68
659.068	3525.24
659.264	-515.41
659.459	36513.92
659.654	621.22
659.85	2339.46
660.045	-1600.83
660.24	2034.32
660.436	5522.01
660.631	-279.89
660.826	2054.8
661.021	195.24
661.217	2474.63
661.412	-879.94
661.607	-2221.36
661.802	-521.55
661.997	-453.97
662.192	641.7
662.388	-2692.4
662.583	-628.04
662.778	363.17
662.973	-1948.98
663.168	-2587.95
663.363	-1043.78
663.558	4153.96
663.753	1143.45
663.948	-2090.29
664.143	-1684.8
664.338	234.15
664.533	983.71
664.728	-654.67
664.923	-1217.86
665.118	158.38
665.313	-920.9
665.508	1215.13
665.703	1202.84
665.897	1147.55
666.092	406.18
666.287	438.95
666.482	-656.72
666.677	2019.98
666.872	1477.27
667.066	-986.44
667.261	-1047.88
667.456	43.69
667.651	1626.77
667.845	1931.92
668.04	404.13
668.235	-1490.24
668.429	1174.17
668.624	238.25
668.819	-896.33
669.013	-1791.29
669.208	793.25
669.402	-1590.59
669.597	-169.3
669.792	-845.13
669.986	2759.3
670.181	-2327.86
670.375	291.49
670.57	-1776.95
670.764	-965.96
670.959	-380.24
671.153	4.78
671.348	-300.37
671.542	2689.67
671.737	-2035
671.931	-2557.23
672.125	563.87
672.32	1170.07
672.514	1270.42
672.709	-1647.93
672.903	-81.24
673.097	-673.1
673.291	-1197.38
673.486	1510.04
673.68	162.47
673.874	-861.51
674.069	-1135.94
674.263	733.86
674.457	1391.25
674.651	873.12
674.845	-683.34
675.04	3490.42
675.234	-1174.85
675.428	-204.11
675.622	-1369.41
675.816	-1764.67
676.01	-832.84
676.204	-146.77
676.398	43.69
676.592	-664.91
676.787	-832.84
676.981	115.37
677.175	115.37
677.369	-3452.19
677.563	-38.23
677.757	-261.46
677.95	-1312.07
678.144	-2807.08
678.338	-996.68
678.532	606.88
678.726	-2538.8
678.92	3261.05
679.114	70.31
679.308	94.89
679.502	-3718.43
679.695	-2143.54
679.889	-521.55
680.083	-2440.5
680.277	-2342.19
680.471	-322.9
680.664	-1510.72
680.858	506.53
681.052	-255.31
681.245	-1363.26
681.439	678.56
681.633	-939.34
681.826	-443.73
682.02	-836.94
682.214	787.1
682.407	-1275.2
682.601	-669
682.795	-554.32
682.988	-544.08
683.182	-1027.4
683.375	-634.19
683.569	-664.91
683.762	805.53
683.956	2089.61
684.149	1655.44
684.343	1819.28
684.536	-1226.05
684.73	150.18
684.923	-2374.96
685.116	-1922.36
685.31	2241.16
685.503	780.96
685.696	-456.01
685.89	1082.01
686.083	-1762.62
686.276	-828.74
686.47	84.65
686.663	-626
686.856	-468.3
687.05	1335.96
687.243	-712.01
687.436	1286.81
687.629	1806.99
687.822	475.81
688.016	-908.62
688.209	-1156.42
688.402	459.43
688.595	-206.16
688.788	-2037.05
688.981	-1701.18
689.174	2767.49
689.367	64.17
689.561	-738.63
689.754	-2565.42
689.947	-634.19
690.14	72.36
690.333	-3325.22
690.526	-814.41
690.719	1540.76
690.912	2017.93
691.104	158.38
691.297	-286.03
691.49	250.53
691.683	-992.58
691.876	-2985.26
692.069	2888.32
692.262	-19.8
692.455	332.45
692.647	-402.77
692.84	-1666.36
693.033	774.81
693.226	424.61
693.419	-1375.55
693.611	-750.92
693.804	78.51
693.997	662.18
694.189	-331.09
694.382	-1109.32
694.575	3144.31
694.767	-83.28
694.96	-1535.29
695.153	-316.75
695.345	250.53
695.538	1800.85
695.731	322.21
695.923	-707.91
696.116	205.48
696.308	1550.99
696.501	-54.61
696.693	2214.54
696.886	-861.51
697.078	-2053.43
697.271	490.15
697.463	832.16
697.655	-322.9
697.848	189.1
698.04	-1207.62
698.233	-2417.97
698.425	-572.75
698.617	1421.97
698.81	-1262.91
699.002	-1125.7
699.194	1874.57
699.387	1067.67
699.579	-1099.08
699.771	-1762.62
699.963	-2661.68
700.156	-1854.78
700.348	1012.38
700.54	228.01
700.732	-963.91
700.924	-568.65
701.117	-767.31
701.309	-1146.18
701.501	-2252.08
701.693	4190.83
701.885	-976.2
702.077	1360.53
702.269	326.31
702.461	1872.53
702.653	96.94
702.845	-775.5
703.037	383.65
703.229	2151.05
703.421	-1115.46
703.613	-1342.78
703.805	3420.79
703.997	404.13
704.189	1225.37
704.381	-906.57
704.573	3732.08
704.765	-781.64
704.957	1503.89
705.148	-146.77
705.34	-947.53
705.532	19.11
705.724	-1205.57
705.916	-1971.51
706.107	1737.36
706.299	324.26
706.491	2007.69
706.682	1559.19
706.874	-697.67
707.066	-458.06
707.258	-1480
707.449	-392.53
707.641	5769.81
707.832	-130.39
708.024	-775.5
708.216	-367.95
708.407	846.49
708.599	-654.67
708.79	1833.61
708.982	-1684.8
709.173	-429.39
709.365	-1039.69
709.556	-267.6
709.748	-236.88
709.939	182.95
710.131	604.83
710.322	-2303.28
710.514	2480.77
710.705	-640.33
710.896	506.53
711.088	604.83
711.279	688.8
711.47	1886.86
711.662	1112.73
711.853	-1416.51
712.044	-2463.02
712.236	408.23
712.427	17.07
712.618	-2510.13
712.809	-1207.62
713	-550.22
713.192	1469.08
713.383	-834.89
713.574	324.26
713.765	-3.41
713.956	-888.14
714.147	2003.6
714.338	-1770.81
714.53	1770.13
714.721	2398.85
714.912	-1269.06
715.103	-2082.1
715.294	737.95
715.485	920.22
715.676	-2377.01
715.867	-2839.85
716.058	-740.68
716.249	1585.81
716.44	-255.31
716.63	-1606.97
716.821	-273.75
717.012	1276.57
717.203	-1346.88
717.394	-947.53
717.585	-2319.67
717.776	-845.13
717.966	-1107.27
718.157	-1570.11
718.348	594.59
718.539	-60.76
718.73	1041.05
718.92	2257.54
719.111	-879.94
719.302	406.18
719.492	-1074.5
719.683	785.05
719.874	-1262.91
720.064	4135.53
720.255	-2149.68
720.446	-363.86
720.636	1614.48
720.827	1249.94
721.017	449.19
721.208	-560.46
721.398	-976.2
721.589	989.85
721.779	377.51
721.97	-3378.47
722.16	-1641.79
722.351	-2315.57
722.541	-1023.3
722.732	1331.86
722.922	1065.63
723.112	1704.59
723.303	-1809.72
723.493	-1776.95
723.683	1192.6
723.874	2378.37
724.064	502.43
724.254	2108.04
724.445	-1015.11
724.635	977.56
724.825	-2938.15
725.015	-808.27
725.206	-705.87
725.396	1417.88
725.586	-1404.22
725.776	934.56
725.966	3877.49
726.157	1159.83
726.347	2050.7
726.537	-341.33
726.727	1890.96
726.917	-1238.34
727.107	-1129.8
727.297	-2841.9
727.487	2022.03
727.677	-1037.64
727.867	193.19
728.057	-310.61
728.247	805.53
728.437	879.26
728.627	-931.14
728.817	-669
729.007	393.89
729.197	717.47
729.387	-679.24
729.576	-439.63
729.766	1624.72
729.956	-400.72
730.146	-927.05
730.336	-1983.8
730.525	-361.81
730.715	-1127.75
730.905	4.78
731.095	-730.44
731.284	754.34
731.474	1626.77
731.664	-781.64
731.853	-2559.28
732.043	-1449.28
732.233	-1867.06
732.422	1546.9
732.612	-1473.85
732.802	363.17
732.991	211.62
733.181	-2876.71
733.37	-1486.14
733.56	-808.27
733.749	1014.43
733.939	-2247.99
734.128	1016.48
734.318	2511.49
734.507	-861.51
734.697	-2415.92
734.886	1600.15
735.076	-1703.23
735.265	1839.76
735.454	465.57
735.644	-1684.8
735.833	-1357.12
736.022	-122.2
736.212	-922.95
736.401	-730.44
736.59	1147.55
736.779	-669
736.969	-2141.49
737.158	314.02
737.347	-1498.43
737.536	-220.5
737.726	-1545.53
737.915	1299.09
738.104	592.55
738.293	-867.66
738.482	98.99
738.671	-1359.17
738.86	-2460.98
739.049	828.06
739.238	-1322.31
739.427	-789.83
739.616	-1881.4
739.806	-1905.98
739.995	-3089.7
740.183	-2032.95
740.372	-154.96
740.561	-609.61
740.75	-3560.74
740.939	195.24
741.128	281.25
741.317	1247.9
741.506	-1056.07
741.695	254.63
741.884	928.41
742.072	1538.71
742.261	-333.14
742.45	-453.97
742.639	393.89
742.828	301.73
743.016	-771.4
743.205	-1805.63
743.394	-1557.82
743.582	1315.48
743.771	-118.1
743.96	580.26
744.148	-128.34
744.337	-220.5
744.526	262.82
744.714	-992.58
744.903	3801.71
745.091	-363.86
745.28	1723.02
745.468	635.55
745.657	305.83
745.845	-7.51
746.034	-1254.72
746.222	-482.64
746.411	-111.96
746.599	344.74
746.788	103.08
746.976	-1475.9
747.165	-853.32
747.353	-105.81
747.541	3816.05
747.73	-2655.53
747.918	940.7
748.106	535.2
748.295	1311.38
748.483	324.26
748.671	-378.19
748.859	-507.21
749.048	1432.21
749.236	-601.42
749.424	-1191.24
749.612	1469.08
749.8	-626
749.989	-658.76
750.177	33.45
750.365	518.82
750.553	408.23
750.741	-2491.7
750.929	3529.33
751.117	-855.37
751.305	115.37
751.493	-984.39
751.681	-2170.16
751.869	-597.32
752.057	543.39
752.245	-1152.32
752.433	1049.24
752.621	-93.52
752.809	1147.55
752.997	903.84
753.185	273.06
753.373	-404.82
753.56	-746.83
753.748	633.51
753.936	-490.83
754.124	271.01
754.312	-1047.88
754.499	2171.53
754.687	682.66
754.875	1200.79
755.063	-861.51
755.25	1313.43
755.438	1954.44
755.626	1034.91
755.813	-996.68
756.001	1147.55
756.189	-1273.15
756.376	-709.96
756.564	-17.75
756.751	930.46
756.939	-945.48
757.127	2439.81
757.314	-157.01
757.502	-1451.33
757.689	1962.64
757.877	979.61
758.064	1270.42
758.251	-933.19
758.439	1131.16
758.626	2491.01
758.814	-892.23
759.001	1739.41
759.188	1800.85
759.376	-1975.61
759.563	1163.93
759.75	1415.83
759.938	-539.98
760.125	-603.47
760.312	-13.65
760.5	-363.86
760.687	903.84
760.874	-1045.83
761.061	981.66
761.248	-2559.28
761.436	3721.84
761.623	-283.99
761.81	455.33
761.997	1129.11
762.184	-671.05
762.371	-886.09
762.558	-415.06
762.745	1634.96
762.932	-23.89
763.119	547.49
763.306	195.24
763.493	264.87
763.68	522.91
763.867	1972.88
764.054	-1363.26
764.241	-621.9
764.428	1714.83
764.615	-46.42
764.802	-124.24
764.989	-1170.76
765.176	70.31
765.362	1094.3
765.549	-781.64
765.736	7959.09
765.923	1845.9
766.11	1594
766.296	29.35
766.483	-2266.42
766.67	303.78
766.857	1086.11
767.043	-1060.17
767.23	453.28
767.417	1936.01
767.603	838.3
767.79	-378.19
767.976	2472.58
768.163	2101.9
768.35	883.36
768.536	-261.46
768.723	-212.31
768.909	1841.81
769.096	2427.53
769.282	-130.39
769.469	-757.07
769.655	2855.55
769.842	811.68
770.028	-1410.37
770.214	60.07
770.401	369.32
770.587	-640.33
770.774	-3013.93
770.96	-3028.26
771.146	236.2
771.333	944.8
771.519	-642.38
771.705	291.49
771.891	-1125.7
772.078	4827.74
772.264	1176.22
772.45	-380.24
772.636	62.12
772.822	-560.46
773.009	3363.45
773.195	823.97
773.381	799.39
773.567	1211.03
773.753	-1127.75
773.939	-1867.06
774.125	-2006.33
774.311	-218.45
774.497	-1854.78
774.683	-1060.17
774.869	1391.25
775.055	2882.17
775.241	-1455.42
775.427	279.21
775.613	-1221.95
775.799	1919.63
775.985	-1434.94
776.171	-128.34
776.357	-25.94
776.543	-87.38
776.729	-1068.36
776.914	-85.33
777.1	940.7
777.286	3867.25
777.472	-640.33
777.657	-869.7
777.843	2370.18
778.029	2622.08
778.215	279.21
778.4	-402.77
778.586	2865.79
778.772	1333.91
778.957	938.65
779.143	-1523.01
779.329	-531.79
779.514	-1293.63
779.7	-357.71
779.885	-2508.08
780.071	146.09
780.256	402.08
780.442	-126.29
780.627	-2456.88
780.813	684.7
780.998	1653.39
781.184	555.68
781.369	-1715.52
781.555	764.57
781.74	-431.44
781.925	1469.08
782.111	-1178.95
782.296	-513.36
782.481	217.77
782.667	-421.2
782.852	1073.82
783.037	-699.72
783.223	-701.77
783.408	-568.65
783.593	735.9
783.778	-1289.54
783.963	230.06
784.149	686.75
784.334	-808.27
784.519	-451.92
784.704	-1852.73
784.889	-118.1
785.074	-1480
785.259	-810.31
785.444	2083.47
785.629	-2018.61
785.814	-2413.87
785.999	-771.4
786.184	2775.68
786.369	-1105.22
786.554	-2565.42
786.739	916.12
786.924	248.49
787.109	-191.83
787.294	1231.51
787.479	1049.24
787.664	-275.79
787.849	1079.96
788.034	619.17
788.218	-378.19
788.403	-7.51
788.588	975.52
788.773	221.86
788.957	-1338.69
789.142	1286.81
789.327	41.64
789.512	-980.29
789.696	3084.92
789.881	2265.74
790.066	-261.46
790.25	2548.36
790.435	-163.15
790.619	1587.86
790.804	729.76
790.989	193.19
791.173	2945.66
791.358	1020.57
791.542	-863.56
791.727	-288.08
791.911	-677.2
792.096	-1377.6
792.28	-929.1
792.465	-451.92
792.649	-1047.88
792.833	504.48
793.018	-855.37
793.202	742.05
793.386	2347.65
793.571	1442.45
793.755	66.22
793.939	-900.42
794.124	-398.67
794.308	160.42
794.492	-777.55
794.676	-1152.32
794.861	-423.25
795.045	1122.97
795.229	-2297.14
795.413	823.97
795.597	-720.2
795.781	23.21
795.966	2458.25
796.15	-118.1
796.334	4039.28
796.518	2474.63
796.702	-996.68
796.886	694.94
797.07	2364.04
797.254	1131.16
797.438	-494.93
797.622	-628.04
797.806	230.06
797.99	1362.58
798.174	123.56
798.358	2192.01
798.541	1829.52
798.725	2736.77
798.909	-58.71
799.093	920.22
799.277	371.36
799.461	1682.07
799.644	-2950.44
799.828	107.18
800.012	2257.54
800.196	148.14
800.379	-66.9
800.563	-1402.18
800.747	1886.86
800.93	-251.22
801.114	-558.41
801.298	-945.48
801.481	2282.12
801.665	2175.63
801.848	-1883.45
802.032	-367.95
802.216	3365.5
802.399	-314.7
802.583	-1576.25
802.766	-2268.47
802.95	518.82
803.133	1888.91
803.317	-1467.71
803.5	-1748.28
803.683	-73.04
803.867	-1531.2
804.05	1215.13
804.233	2099.85
804.417	2923.13
804.6	-318.8
804.783	178.86
804.967	2054.8
805.15	692.9
805.333	234.15
805.517	637.6
805.7	-1408.32
805.883	-245.07
806.066	1450.64
806.249	1907.34
806.432	-1824.06
806.616	146.09
806.799	-1533.25
806.982	-845.13
807.165	522.91
807.348	193.19
807.531	-1264.96
807.714	-896.33
807.897	346.79
808.08	834.21
808.263	1557.14
808.446	1272.47
808.629	266.92
808.812	-769.35
808.995	-107.86
809.178	2114.19
809.361	1575.57
809.544	1483.41
809.726	2546.31
809.909	1669.78
810.092	1073.82
810.275	1528.47
810.458	3496.57
810.64	1501.84
810.823	1147.55
811.006	365.22
811.189	2765.44
811.371	-785.74
811.554	213.67
811.737	1577.62
811.919	1604.24
812.102	-615.76
812.285	-1588.54
812.467	1098.39
812.65	-54.61
812.832	-1072.45
813.015	1790.61
813.197	1712.78
813.38	1630.87
813.562	2513.54
813.745	-1529.15
813.927	-1887.54
814.11	1688.21
814.292	-337.23
814.475	-1174.85
814.657	-427.34
814.839	1000.09
815.022	-1240.39
815.204	3299.96
815.386	2235.02
815.569	1882.77
815.751	-2309.43
815.933	1714.83
816.116	1501.84
816.298	1249.94
816.48	-175.44
816.662	-810.31
816.844	367.27
817.027	170.66
817.209	-881.99
817.391	-1549.63
817.573	-187.73
817.755	-228.69
817.937	281.25
818.119	-806.22
818.301	-689.48
818.483	-193.87
818.665	-726.35
818.847	1182.36
819.029	215.72
819.211	-1465.66
819.393	68.27
819.575	2804.35
819.757	1888.91
819.939	594.59
820.121	-7.51
820.303	508.58
820.485	3046.01
820.666	2757.25
820.848	2779.78
821.03	49.83
821.212	1931.92
821.394	-1803.58
821.575	864.93
821.757	2267.78
821.939	397.99
822.121	778.91
822.302	3246.71
822.484	1581.71
822.666	-2327.86
822.847	-464.21
823.029	-2956.58
823.21	1211.03
823.392	-1975.61
823.573	-267.6
823.755	-1535.29
823.937	-1406.27
824.118	-1207.62
824.3	4833.89
824.481	-1025.35
824.662	-851.27
824.844	23.21
825.025	1112.73
825.207	-1893.69
825.388	-150.87
825.569	-1387.84
825.751	-853.32
825.932	2386.57
826.113	-2006.33
826.295	1131.16
826.476	557.73
826.657	-228.69
826.839	-734.54
827.02	527.01
827.201	3420.79
827.382	-257.36
827.563	1018.52
827.744	-701.77
827.926	441
828.107	1940.11
828.288	-1613.12
828.469	316.07
828.65	1039
828.831	-2141.49
829.012	-234.83
829.193	1868.43
829.374	-892.23
829.555	2194.06
829.736	5581.4
829.917	2941.57
830.098	1686.16
830.279	-2020.66
830.46	-943.43
830.641	19.11
830.822	62.12
831.002	1792.66
831.183	-783.69
831.364	1295
831.545	1196.7
831.726	98.99
831.906	-54.61
832.087	1137.31
832.268	932.51
832.449	1997.45
832.629	-1891.64
832.81	-914.76
832.991	-1123.65
833.171	787.1
833.352	627.36
833.532	1774.22
833.713	-802.12
833.894	-183.63
834.074	-1996.09
834.255	-1029.45
834.435	-920.9
834.616	-902.47
834.796	-257.36
834.977	1200.79
835.157	3187.32
835.338	-1045.83
835.518	-1951.03
835.698	49.83
835.879	-1049.93
836.059	273.06
836.239	41.64
836.42	-19.8
836.6	496.29
836.78	-2282.8
836.961	-1023.3
837.141	1417.88
837.321	-1434.94
837.501	3525.24
837.682	-861.51
837.862	-404.82
838.042	5481.05
838.222	-886.09
838.402	-505.17
838.582	-226.64
838.763	539.3
838.943	-439.63
839.123	1997.45
839.303	262.82
839.483	1477.27
839.663	-2590
839.843	12554.73
840.023	1823.37
840.203	1503.89
840.383	-568.65
840.563	-863.56
840.742	-85.33
840.922	-984.39
841.102	875.17
841.282	-126.29
841.462	86.7
841.642	-499.02
841.822	-1662.27
842.001	-2633.01
842.181	631.46
842.361	789.15
842.541	1796.75
842.72	860.83
842.9	-439.63
843.08	320.17
843.259	-423.25
843.439	-392.53
843.619	-963.91
843.798	-64.85
843.978	1094.3
844.157	-720.2
844.337	1065.63
844.517	-748.87
844.696	2218.63
844.876	1200.79
845.055	-1451.33
845.235	987.8
845.414	314.02
845.593	-1426.75
845.773	-902.47
845.952	-2528.56
846.132	-1801.53
846.311	-1574.21
846.49	727.71
846.67	783.01
846.849	-816.46
847.028	-1682.75
847.208	1096.35
847.387	-1058.12
847.566	2613.89
847.745	-1291.59
847.924	703.14
848.104	821.92
848.283	514.72
848.462	1901.2
848.641	1929.87
848.82	-79.19
848.999	2499.2
849.178	-660.81
849.358	1358.49
849.537	17.07
849.716	-906.57
849.895	-1480
850.074	1755.79
850.253	2189.96
850.432	445.09
850.61	-13.65
850.789	-738.63
850.968	2091.66
851.147	2081.42
851.326	-1088.84
851.505	-32.08
851.684	242.34
851.863	1751.7
852.041	543.39
852.22	-427.34
852.399	-931.14
852.578	869.02
852.756	-1895.74
852.935	-582.99
853.114	1757.84
853.293	-1588.54
853.471	3064.44
853.65	463.52
853.828	-564.56
854.007	-1291.59
854.186	371.36
854.364	1692.3
854.543	490.15
854.721	-505.17
854.9	815.77
855.078	2187.91
855.257	-617.8
855.435	-2991.4
855.614	154.28
855.792	-626
855.971	-490.83
856.149	-1942.84
856.327	817.82
856.506	80.55
856.684	-720.2
856.862	-1242.43
857.041	-3466.53
857.219	1438.36
857.397	-988.49
857.576	-814.41
857.754	-709.96
857.932	1034.91
858.11	-474.45
858.288	-564.56
858.467	-2346.29
858.645	-2016.57
858.823	-443.73
859.001	426.66
859.179	-1783.1
859.357	-1148.23
859.535	621.22
859.713	1395.35
859.891	807.58
860.069	3465.85
860.247	-802.12
860.425	-2440.5
860.603	563.87
860.781	1610.39
860.959	213.67
861.137	-2565.42
861.315	-1559.87
861.493	195.24
861.67	1616.53
861.848	1305.24
862.026	-978.25
862.204	-961.86
862.382	-703.82
862.559	-415.06
862.737	823.97
862.915	1403.54
863.093	-683.34
863.27	1665.68
863.448	1575.57
863.626	10.92
863.803	-294.22
863.981	-1252.67
864.158	-2538.8
864.336	-1039.69
864.514	-1537.34
864.691	-1957.18
864.869	-988.49
865.046	-1662.27
865.224	-181.59
865.401	1450.64
865.578	-1121.6
865.756	2103.95
865.933	-2530.61
866.111	1454.74
866.288	-1213.76
866.465	-732.49
866.643	-1684.8
866.82	-949.57
866.997	-841.03
867.175	-132.44
867.352	-857.42
867.529	-2954.54
867.706	-1293.63
867.884	-48.47
868.061	-376.14
868.238	-1049.93
868.415	-1690.94
868.592	-1156.42
868.77	-1101.12
868.947	1065.63
869.124	-988.49
869.301	-2247.99
869.478	-3.41
869.655	-3081.51
869.832	-173.39
870.009	2454.15
870.186	2482.82
870.363	8.87
870.54	-5.46
870.717	-507.21
870.894	-118.1
871.071	586.4
871.247	-1869.11
871.424	-1080.64
871.601	-392.53
871.778	-1162.56
871.955	-339.28
872.132	342.69
872.308	-154.96
872.485	-335.18
872.662	-712.01
872.839	1714.83
873.015	-1058.12
873.192	260.77
873.369	-601.42
873.545	-722.25
873.722	-44.37
873.898	-218.45
874.075	-705.87
874.252	33.45
874.428	-421.2
874.605	-146.77
874.781	-2755.88
874.958	-1391.94
875.134	719.52
875.311	291.49
875.487	307.88
875.663	2267.78
875.84	-46.42
876.016	922.27
876.193	725.66
876.369	-1131.84
876.545	-1099.08
876.722	-1158.47
876.898	-109.91
877.074	342.69
877.25	1110.68
877.427	5526.1
877.603	-515.41
877.779	-705.87
877.955	-361.81
878.132	2067.08
878.308	1784.46
878.484	3015.29
878.66	-1584.45
878.836	49.83
879.012	-93.52
879.188	467.62
879.364	-25.94
879.54	-650.57
879.716	-1682.75
879.892	123.56
880.068	1512.08
880.244	3406.45
880.42	-1260.87
880.596	-372.05
880.772	-728.39
880.948	-998.73
881.124	676.51
881.3	4805.22
881.475	-216.4
881.651	-247.12
881.827	-546.12
882.003	-286.03
882.178	-2166.07
882.354	-548.17
882.53	-1074.5
882.706	-101.72
882.881	389.8
883.057	-1430.85
883.233	-234.83
883.408	1714.83
883.584	-857.42
883.759	-1754.43
883.935	-1914.17
884.111	-2112.82
884.286	-738.63
884.462	-2381.11
884.637	-632.14
884.813	-1905.98
884.988	-554.32
885.164	3082.88
885.339	-1367.36
885.514	1378.97
885.69	-1246.53
885.865	-2143.54
886.04	414.37
886.216	-787.79
886.391	692.9
886.566	-150.87
886.742	-2159.92
886.917	-261.46
887.092	2128.52
887.267	-1985.85
887.443	-2334
887.618	-1459.52
887.793	-1137.99
887.968	121.51
888.143	-1973.56
888.318	-306.51
888.494	748.19
888.669	-445.77
888.844	-503.12
889.019	-687.43
889.194	-761.16
889.369	-1252.67
889.544	-945.48
889.719	1030.81
889.894	2118.28
890.069	232.1
890.243	727.71
890.418	-744.78
890.593	-1318.21
890.768	-447.82
890.943	1573.52
891.118	-814.41
891.293	-228.69
891.467	-1447.23
891.642	2720.39
891.817	-1021.25
891.992	170.66
892.166	-1445.18
892.341	1047.19
892.516	-312.66
892.69	-128.34
892.865	-2284.85
893.04	-595.28
893.214	975.52
893.389	299.69
893.563	2755.2
893.738	3099.26
893.912	-994.63
894.087	121.51
894.261	1280.66
894.436	-1453.38
894.61	2499.2
894.785	45.74
894.959	-361.81
895.134	1518.23
895.308	-1639.74
895.482	936.6
895.657	-1471.81
895.831	-1140.04
896.005	5556.82
896.18	-859.46
896.354	53.93
896.528	-2073.91
896.702	135.85
896.877	1651.35
897.051	-1930.55
897.225	271.01
897.399	397.99
897.573	-1062.21
897.747	115.37
897.922	-220.5
898.096	1766.03
898.27	-1660.22
898.444	-902.47
898.618	266.92
898.792	23.21
898.966	223.91
899.14	344.74
899.314	641.7
899.488	2007.69
899.662	150.18
899.835	266.92
900.009	111.27
900.183	-1535.29
900.357	3570.29
900.531	-779.59
900.705	-1127.75
900.878	-1752.38
901.052	-994.63
901.226	895.64
901.4	391.84
901.573	-976.2
901.747	-1578.3
901.921	-175.44
902.095	193.19
902.268	1768.08
902.442	-1250.63
902.615	-2100.53
902.789	1237.66
902.963	5669.46
903.136	-382.29
903.31	2511.49
903.483	-1400.13
903.657	1598.1
903.83	279.21
904.004	-2616.62
904.177	258.73
904.35	-499.02
904.524	-2270.51
904.697	174.76
904.871	359.08
905.044	1348.25
905.217	4715.11
905.391	3273.34
905.564	1069.72
905.737	570.02
905.91	-351.57
906.084	-2231.6
906.257	555.68
906.43	-2342.19
906.603	33.45
906.776	-3169.57
906.949	-1117.51
907.123	-1379.65
907.296	-617.8
907.469	2206.34
907.642	-621.9
907.815	1245.85
907.988	-144.72
908.161	-900.42
908.334	-986.44
908.507	1018.52
908.68	567.97
908.853	135.85
909.026	-712.01
909.199	-453.97
909.371	2450.05
909.544	1446.55
909.717	-81.24
909.89	-1301.83
910.063	-1441.09
910.236	-240.98
910.408	1065.63
910.581	-2186.55
910.754	-2200.88
910.927	-2708.78
911.099	193.19
911.272	492.2
911.445	215.72
911.617	-615.76
911.79	1913.49
911.962	-339.28
912.135	-955.72
912.308	-23.89
912.48	-1822.01
912.653	-1320.26
912.825	-968.01
912.998	-775.5
913.17	1233.56
913.343	1594
913.515	-693.58
913.687	-1719.61
913.86	176.81
914.032	1663.63
914.205	-460.11
914.377	-81.24
914.549	-3071.27
914.721	529.06
914.894	-1436.99
915.066	-476.49
915.238	-1746.23
915.41	2130.57
915.583	377.51
915.755	-1733.95
915.927	68.27
916.099	998.04
916.271	-632.14
916.443	-1848.63
916.616	-2151.73
916.788	6429.26
916.96	2253.45
917.132	-3638.56
917.304	-304.46
917.476	1602.19
917.648	207.53
917.82	-2944.3
917.992	1591.95
918.164	926.36
918.335	166.57
918.507	1180.31
918.679	-2440.5
918.851	1700.5
919.023	-599.37
919.195	62.12
919.366	-2161.97
919.538	-2678.06
919.71	-1600.83
919.882	-1445.18
920.053	-1797.43
920.225	-1174.85
920.397	1598.1
920.568	-1688.89
920.74	-1240.39
920.912	-1074.5
921.083	-1588.54
921.255	-2121.01
921.426	-2121.01
921.598	-150.87
921.77	-1045.83
921.941	-2067.77
922.113	-1928.5
922.284	1282.71
922.455	-1109.32
922.627	-2260.27
922.798	-2051.38
922.97	-1475.9
923.141	-1520.96
923.312	-3421.47
923.484	486.05
923.655	-2442.54
923.826	586.4
923.998	-1178.95
924.169	760.48
924.34	-1561.92
924.511	-77.14
924.683	-316.75
924.854	-1117.51
925.025	-181.59
925.196	1102.49
925.367	776.86
925.538	88.75
925.709	-275.79
925.881	467.62
926.052	-1279.3
926.223	-685.39
926.394	1008.28
926.565	-834.89
926.736	-3607.84
926.907	-1715.52
927.078	320.17
927.248	1974.92
927.419	740
927.59	-2837.8
927.761	914.08
927.932	748.19
928.103	-355.66
928.274	-1248.58
928.444	-527.69
928.615	-1094.98
928.786	-1236.29
928.957	-2198.84
929.127	-1238.34
929.298	58.03
929.469	-1353.02
929.639	-318.8
929.81	-466.25
929.981	-212.31
930.151	320.17
930.322	3551.86
930.492	535.2
930.663	3367.54
930.833	-1701.18
931.004	-370
931.174	463.52
931.345	41.64
931.515	-1824.06
931.686	-374.1
931.856	1983.12
932.027	-2110.77
932.197	873.12
932.367	-1807.67
932.538	1284.76
932.708	-1064.26
932.878	47.79
933.048	-806.22
933.219	-1062.21
933.389	1841.81
933.559	-1799.48
933.729	-1959.22
933.9	264.87
934.07	-1971.51
934.24	-2364.72
934.41	103.08
934.58	-105.81
934.75	639.65
934.92	-2911.53
935.09	279.21
935.26	-1121.6
935.43	2198.15
935.6	-1056.07
935.77	705.18
935.94	397.99
936.11	-1209.67
936.28	-1617.21
936.45	948.89
936.62	82.6
936.79	404.13
936.96	-605.52
937.129	-838.98
937.299	8.87
937.469	-5.46
937.639	21.16
937.808	-841.03
937.978	-2200.88
938.148	1268.38
938.317	72.36
938.487	342.69
938.657	-1527.1
938.826	-1545.53
938.996	-636.24
939.166	-3607.84
939.335	-2166.07
939.505	-73.04
939.674	-1269.06
939.844	-1961.27
940.013	166.57
940.183	-2069.81
940.352	-2024.76
940.522	-728.39
940.691	-1031.49
940.86	557.73
941.03	-953.67
941.199	-19.8
941.368	389.8
941.538	1053.34
941.707	-1852.73
941.876	-542.03
942.046	961.18
942.215	-146.77
942.384	-1987.9
942.553	-474.45
942.722	-789.83
942.892	1493.65
943.061	-2837.8
943.23	410.28
943.399	3523.19
943.568	-759.11
943.737	1903.25
943.906	-101.72
944.075	-1492.29
944.244	1317.53
944.413	-791.88
944.582	-2583.85
944.751	-36.18
944.92	-634.19
945.089	490.15
945.258	-626
945.427	-435.53
945.596	-808.27
945.764	-804.17
945.933	-1240.39
946.102	1118.87
946.271	-808.27
946.44	-734.54
946.608	-1463.61
946.777	-920.9
946.946	-709.96
947.114	2007.69
947.283	-757.07
947.452	-1688.89
947.62	-1203.52
947.789	899.74
947.958	-1185.09
948.126	391.84
948.295	201.38
948.463	-1174.85
948.632	-1131.84
948.8	-724.3
948.969	-1779
949.137	-922.95
949.305	-1723.71
949.474	848.54
949.642	701.09
949.811	567.97
949.979	-427.34
950.147	-2022.71
950.316	-1969.46
950.484	-2094.39
950.652	-1342.78
950.82	1282.71
950.989	-2938.15
951.157	-1555.77
951.325	-2026.81
951.493	1479.32
951.661	717.47
951.83	682.66
951.998	-2567.47
952.166	-785.74
952.334	-1838.39
952.502	2896.51
952.67	1018.52
952.838	524.96
953.006	2519.68
953.174	125.61
953.342	352.93
953.51	-513.36
953.678	-699.72
953.846	-2659.63
954.014	-329.04
954.181	2151.05
954.349	-1428.8
954.517	-2008.37
954.685	-1948.98
954.853	-1287.49
955.02	-1699.13
955.188	-2276.66
955.356	-1496.38
955.524	1102.49
955.691	-406.86
955.859	-1799.48
956.027	-503.12
956.194	2650.75
956.362	-1140.04
956.529	586.4
956.697	-1226.05
956.865	311.97
957.032	1505.94
957.2	-1735.99
957.367	-2264.37
957.535	268.97
957.702	991.9
957.87	-2168.12
958.037	221.86
958.204	-1199.43
958.372	1004.19
958.539	96.94
958.706	-445.77
958.874	3021.44
959.041	352.93
959.208	-2194.74
959.376	-1463.61
959.543	893.6
959.71	-232.79
959.877	1254.04
960.044	-228.69
960.212	2523.78
960.379	3039.87
960.546	301.73
960.713	-2573.61
960.88	-519.5
961.047	-60.76
961.214	16402.86
961.381	2280.07
961.548	-978.25
961.715	-437.58
961.882	-2245.94
962.049	-853.32
962.216	-970.05
962.383	-1414.46
962.55	-927.05
962.717	1548.95
962.883	918.17
963.05	2435.72
963.217	387.75
963.384	-1328.45
963.551	-359.76
963.717	-1490.24
963.884	-189.78
964.051	365.22
964.218	1280.66
964.384	5714.52
964.551	-2096.44
964.717	-2512.18
964.884	-628.04
965.051	-1426.75
965.217	-2354.48
965.384	-2768.17
965.55	1051.29
965.717	1792.66
965.883	82.6
966.05	-1367.36
966.216	2085.51
966.383	952.99
966.549	-30.04
966.716	-963.91
966.882	-1850.68
967.048	-1312.07
967.215	-2307.38
967.381	-1344.83
967.547	1782.42
967.713	2034.32
967.88	445.09
968.046	-2436.4
968.212	-1049.93
968.378	1020.57
968.545	-2467.12
968.711	1149.59
968.877	-589.13
969.043	-157.01
969.209	-2114.87
969.375	1016.48
969.541	2040.46
969.707	2599.56
969.873	1194.65
970.039	-656.72
970.205	1548.95
970.371	4815.46
970.537	1401.49
970.703	217.77
970.869	-867.66
971.035	1833.61
971.201	8.87
971.367	-1678.65
971.532	-472.4
971.698	-511.31
971.864	1378.97
972.03	-2000.18
972.195	-1363.26
972.361	2071.18
972.527	-1416.51
972.693	3213.95
972.858	1520.28
973.024	-1979.7
973.19	-570.7
973.355	236.2
973.521	619.17
973.686	1507.99
973.852	-2542.89
974.017	4401.77
974.183	-2207.03
974.348	596.64
974.514	-2374.96
974.679	-347.47
974.845	-1357.12
975.01	-511.31
975.175	-2901.29
975.341	17476
975.506	-240.98
975.672	481.96
975.837	3848.82
976.002	-87.38
976.167	-947.53
976.333	4909.66
976.498	-1078.6
976.663	-1836.35
976.828	846.49
976.993	-1013.06
977.159	72.36
977.324	465.57
977.489	3267.19
977.654	-3.41
977.819	-1207.62
977.984	-539.98
978.149	2544.26
978.314	1364.63
978.479	-1117.51
978.644	-1957.18
978.809	-836.94
978.974	-1748.28
979.139	2140.81
979.304	17.07
979.469	-818.5
979.633	-773.45
979.798	-578.89
979.963	-1594.69
980.128	2923.13
980.293	-1922.36
980.457	-1588.54
980.622	-2325.81
980.787	-1785.15
980.951	-341.33
981.116	-367.95
981.281	-1834.3
981.445	-273.75
981.61	783.01
981.775	-1785.15
981.939	-2759.98
982.104	1907.34
982.268	1084.06
982.433	1323.67
982.597	-1629.5
982.762	2687.62
982.926	875.17
983.091	-793.93
983.255	-2620.72
983.419	-1787.19
983.584	1634.96
983.748	-97.62
983.912	-124.24
984.077	2097.8
984.241	2132.62
984.405	-1940.79
984.57	1968.78
984.734	-486.73
984.898	-376.14
985.062	-1205.57
985.226	-1373.5
985.39	2536.07
985.555	-79.19
985.719	1997.45
985.883	217.77
986.047	-1371.46
986.211	660.13
986.375	-126.29
986.539	-1295.68
986.703	-1408.32
986.867	-62.8
987.031	492.2
987.195	-1910.07
987.359	-1697.08
987.523	574.11
987.686	-2086.2
987.85	-1768.76
988.014	615.07
988.178	-1086.79
988.342	944.8
988.506	459.43
988.669	-466.25
988.833	115.37
988.997	481.96
989.16	-615.76
989.324	-238.93
989.488	2925.18
989.651	217.77
989.815	3185.27
989.979	-1019.21
990.142	213.67
990.306	-523.6
990.469	1712.78
990.633	1051.29
990.796	2128.52
990.96	-773.45
991.123	791.2
991.286	1800.85
991.45	1041.05
991.613	-1676.6
991.777	-2184.5
991.94	-2028.85
992.103	494.24
992.267	2681.47
992.43	-896.33
992.593	473.76
992.756	244.39
992.92	641.7
993.083	500.39
993.246	-308.56
993.409	-2647.34
993.572	-2170.16
993.735	-703.82
993.899	232.1
994.062	-388.43
994.225	-853.32
994.388	340.65
994.551	2513.54
994.714	-290.13
994.877	-423.25
995.04	-1637.69
995.203	-1420.61
995.366	1172.12
995.528	-1281.35
995.691	811.68
995.854	-1469.76
996.017	-818.5
996.18	-2680.11
996.343	-523.6
996.505	1946.25
996.668	602.79
996.831	-542.03
996.994	-503.12
997.156	-374.1
997.319	-1371.46
997.482	1356.44
997.644	-1621.31
997.807	1141.4
997.97	-1973.56
998.132	-1441.09
998.295	1368.73
998.457	371.36
998.62	-1168.71
998.782	-1490.24
998.945	199.34
999.107	-116.05
999.27	-21.85
999.432	-974.15
999.594	561.83
999.757	2011.79
999.919	266.92
1000.081	-2075.96
1000.244	-271.7
1000.406	-138.58
1000.568	-118.1
1000.731	1940.11
1000.893	1659.54
1001.055	1303.19
1001.217	-669
1001.379	-2374.96
1001.542	-1299.78
1001.704	3351.16
1001.866	-814.41
1002.028	1036.95
1002.19	385.7
1002.352	-1142.08
1002.514	-1604.92
1002.676	5483.09
1002.838	1712.78
1003	-675.15
1003.162	-1211.71
1003.324	2140.81
1003.486	1254.04
1003.648	-1275.2
1003.809	-630.09
1003.971	940.7
1004.133	-23.89
1004.295	-251.22
1004.457	-408.91
1004.618	598.69
1004.78	199.34
1004.942	3859.06
1005.104	37.55
1005.265	-1490.24
1005.427	934.56
1005.589	-623.95
1005.75	348.84
1005.912	1919.63
1006.073	2128.52
1006.235	246.44
1006.396	-183.63
1006.558	-376.14
1006.72	-210.26
1006.881	498.34
1007.042	-1289.54
1007.204	-1840.44
1007.365	-1314.11
1007.527	1063.58
1007.688	3191.42
1007.849	-64.85
1008.011	-48.47
1008.172	305.83
1008.333	901.79
1008.495	-343.38
1008.656	-2030.9
1008.817	1055.39
1008.978	2476.68
1009.139	-589.13
1009.301	635.55
1009.462	-2612.53
1009.623	1086.11
1009.784	-1248.58
1009.945	207.53
1010.106	977.56
1010.267	111.27
1010.428	-1363.26
1010.589	-2211.12
1010.75	187.05
1010.911	-1201.48
1011.072	-2319.67
1011.233	963.23
1011.394	-630.09
1011.555	141.99
1011.716	475.81
1011.877	-1361.22
1012.037	383.65
1012.198	-1129.8
1012.359	545.44
1012.52	-1408.32
1012.68	-441.68
1012.841	17.07
1013.002	230.06
1013.163	-871.75
1013.323	217.77
1013.484	-1991.99
1013.644	-1277.25
1013.805	645.79
1013.966	-505.17
1014.126	2751.1
1014.287	-832.84
1014.447	-273.75
1014.608	1364.63
1014.768	-1217.86
1014.929	1233.56
1015.089	-1371.46
1015.249	303.78
1015.41	-23.89
1015.57	963.23
1015.731	-2219.32
1015.891	-691.53
1016.051	465.57
1016.211	-535.89
1016.372	1540.76
1016.532	-746.83
1016.692	-277.84
1016.852	742.05
1017.013	-597.32
1017.173	-134.48
1017.333	-1066.31
1017.493	-802.12
1017.653	-1367.36
1017.813	-2016.57
1017.973	-505.17
1018.133	-1510.72
1018.293	-1932.6
1018.453	-445.77
1018.613	-2037.05
1018.773	2126.47
1018.933	-283.99
1019.093	842.4
1019.253	164.52
1019.413	1036.95
1019.573	-2239.8
1019.733	-466.25
1019.892	2116.23
1020.052	-693.58
1020.212	469.67
1020.372	238.25
1020.531	1575.57
1020.691	-304.46
1020.851	-97.62
1021.01	340.65
1021.17	133.8
1021.33	-484.69
1021.489	-1699.13
1021.649	-152.91
1021.808	80.55
1021.968	305.83
1022.127	-2841.9
1022.287	1962.64
1022.446	-664.91
1022.606	567.97
1022.765	-1424.7
1022.925	2708.1
1023.084	-687.43
1023.244	1751.7
1023.403	-611.66
1023.562	-1094.98
1023.722	-427.34
1023.881	-644.43
1024.04	-281.94
1024.199	713.38
1024.359	-11.61
1024.518	-2200.88
1024.677	-933.19
1024.836	-965.96
1024.995	963.23
1025.154	-1101.12
1025.313	-238.93
1025.473	-1404.22
1025.632	-1340.74
1025.791	725.66
1025.95	-1367.36
1026.109	-826.7
1026.268	168.62
1026.427	1495.7
1026.586	1811.09
1026.744	-23.89
1026.903	6361.67
1027.062	-283.99
1027.221	1075.87
1027.38	332.45
1027.539	1043.1
1027.698	4917.86
1027.856	-1303.87
1028.015	608.93
1028.174	518.82
1028.333	133.8
1028.491	3893.87
1028.65	1563.28
1028.808	3986.03
1028.967	846.49
1029.126	668.32
1029.284	-1826.11
1029.443	914.08
1029.601	-826.7
1029.76	-1578.3
1029.918	-1281.35
1030.077	584.35
1030.235	2116.23
1030.394	-699.72
1030.552	1147.55
1030.711	2636.42
1030.869	-638.28
1031.027	-818.5
1031.186	-2497.84
1031.344	-1117.51
1031.502	-384.34
1031.661	1329.81
1031.819	2110.09
1031.977	1129.11
1032.135	-1666.36
1032.293	-1045.83
1032.452	-1445.18
1032.61	3619.44
1032.768	-1682.75
1032.926	156.33
1033.084	3404.41
1033.242	-560.46
1033.4	-1563.97
1033.558	760.48
1033.716	-535.89
1033.874	-859.46
1034.032	-187.73
1034.19	-415.06
1034.348	2269.83
1034.506	-1908.02
1034.664	604.83
1034.822	-1799.48
1034.979	2462.34
1035.137	783.01
1035.295	-337.23
