Data from Background no Sample 10 sec exposure (900 SPF and 750LPF in Output, 700SpF Input)_USBC44471_14-36-33-738.txt Node
Date: Wed Jul 29 14:36:33 MDT 2020
User: Montana Instruments
Spectrometer: USBC4447
Scans to average: 1
Trigger mode: 4
Integration Time (sec): 1.000000E1
Electric dark correction enabled: true
Boxcar width: 0
XAxis mode: Wavelengths
Number of Pixels in Spectrum: 3648
>>>>>Begin Spectral Data<<<<<
344.991	-5418.58
345.205	-5418.58
345.419	-5418.58
345.633	-5402.2
345.847	-5396.06
346.061	-265.89
346.275	903.5
346.489	-1332.89
346.703	-231.08
346.917	-1734.29
347.131	1085.76
347.345	-886.43
347.559	-882.33
347.773	1501.5
347.986	-75.43
348.2	3100.97
348.414	-1183.38
348.628	-689.82
348.842	-999.07
349.056	-1205.91
349.269	385.36
349.483	1270.08
349.697	1513.79
349.911	1290.56
350.125	-1115.8
350.338	426.32
350.552	913.74
350.766	-720.54
350.979	-1492.63
351.193	-476.84
351.407	5488.9
351.621	-292.52
351.834	-1461.91
352.048	2523.44
352.262	-421.54
352.475	3359.01
352.689	1151.3
352.902	1640.76
353.116	61.78
353.33	-1474.2
353.543	-1027.74
353.757	153.94
353.971	233.81
354.184	149.84
354.398	-151.21
354.611	803.15
354.825	2935.08
355.038	1190.21
355.252	-194.22
355.465	-337.57
355.679	-1799.82
355.892	917.83
356.106	1143.11
356.319	7641.31
356.533	-419.49
356.746	-210.6
356.96	-775.84
357.173	-1584.79
357.386	1214.79
357.6	-886.43
357.813	-1078.94
358.027	-1910.41
358.24	-724.64
358.453	2773.29
358.667	-1404.57
358.88	1128.77
359.094	-1095.32
359.307	239.95
359.52	-388.77
359.733	2218.29
359.947	-2291.34
360.16	1141.06
360.373	1622.33
360.587	-1232.54
360.8	-585.38
361.013	-362.15
361.226	-829.09
361.44	2634.03
361.653	1560.89
361.866	-900.76
362.079	-2086.54
362.292	115.03
362.506	3617.05
362.719	627.02
362.932	3049.77
363.145	-20.14
363.358	-915.1
363.571	-1382.04
363.785	-253.61
363.998	1290.56
364.211	1851.71
364.424	-1236.63
364.637	1161.54
364.85	-810.65
365.063	1909.05
365.276	43.35
365.489	-1527.44
365.702	-302.76
365.915	377.17
366.128	-224.94
366.341	2015.54
366.554	3330.34
366.767	-978.59
366.98	61.78
367.193	872.78
367.406	-1408.66
367.619	3914.01
367.832	1909.05
368.045	201.04
368.258	305.49
368.471	1061.19
368.684	-2215.56
368.896	-1814.16
369.109	90.45
369.322	-1222.3
369.535	-353.96
369.748	-1461.91
369.961	-714.4
370.173	-2809.47
370.386	-2653.83
370.599	2572.59
370.812	-542.37
371.025	-820.89
371.237	207.19
371.45	293.2
371.663	579.92
371.876	-655.01
372.088	4940.04
372.301	-917.15
372.514	-1517.2
372.726	569.68
372.939	-454.31
373.152	-419.49
373.364	835.91
373.577	3291.43
373.79	-597.67
374.002	-962.2
374.215	-2846.34
374.428	-1867.41
374.64	1497.41
374.853	-1035.93
375.065	-521.89
375.278	3432.74
375.491	10.58
375.703	1456.45
375.916	-2098.83
376.128	-614.05
376.341	-1695.38
376.553	901.45
376.766	-1400.47
376.978	-1795.73
377.191	790.86
377.403	-1752.72
377.616	3119.4
377.828	3981.59
378.04	-1404.57
378.253	-636.58
378.465	450.89
378.678	1112.39
378.89	-1257.11
379.103	-919.2
379.315	418.13
379.527	-1736.34
379.74	-468.64
379.952	-345.77
380.164	-1466
380.377	1982.78
380.589	102.74
380.801	98.64
381.014	1638.72
381.226	1077.57
381.438	6.49
381.65	-1486.48
381.863	76.12
382.075	-1101.47
382.287	-2264.71
382.499	-1013.4
382.712	-132.78
382.924	90.45
383.136	-1091.23
383.348	-2934.4
383.56	-87.72
383.772	-980.64
383.985	182.61
384.197	1452.35
384.409	-710.3
384.621	602.44
384.833	-22.19
385.045	47.44
385.257	-1341.08
385.469	-532.13
385.681	217.43
385.893	-97.96
386.105	-1162.9
386.318	-2627.2
386.53	-472.74
386.742	-2981.5
386.954	-2248.33
387.166	3051.81
387.378	67.92
387.589	-9.9
387.801	-2946.69
388.013	-1541.78
388.225	-1246.87
388.437	-2115.21
388.649	-1851.02
388.861	2568.49
389.073	1136.96
389.285	-691.87
389.497	756.04
389.709	1474.88
389.92	-1142.43
390.132	-1033.88
390.344	-784.03
390.556	-693.92
390.768	350.54
390.98	-1099.42
391.191	1759.55
391.403	569.68
391.615	180.56
391.827	-1308.31
392.038	-859.81
392.25	-282.28
392.462	-2252.42
392.674	-1967.76
392.885	-1541.78
393.097	-2473.6
393.309	-775.84
393.52	1155.4
393.732	-1681.04
393.944	448.85
394.155	463.18
394.367	-1523.35
394.579	547.15
394.79	-1257.11
395.002	151.89
395.213	-2686.59
395.425	-382.63
395.637	-1271.45
395.848	-2373.25
396.06	487.76
396.271	334.16
396.483	-1162.9
396.694	-261.8
396.906	-644.77
397.117	1302.85
397.329	1515.84
397.54	-1062.55
397.752	-1685.14
397.963	-1177.24
398.175	170.32
398.386	1005.89
398.598	-892.57
398.809	-2213.51
399.02	930.12
399.232	885.06
399.443	131.41
399.655	-1083.03
399.866	-1302.17
400.077	-734.88
400.289	1302.85
400.5	-77.48
400.711	938.31
400.923	-1427.09
401.134	-1203.86
401.345	-1941.13
401.556	3383.59
401.768	-990.88
401.979	-456.36
402.19	762.19
402.401	-409.25
402.613	18.77
402.824	-708.26
403.035	-2635.39
403.246	-1814.16
403.457	362.83
403.669	190.8
403.88	-1359.51
404.091	-2156.17
404.302	-1433.24
404.513	-675.49
404.724	-906.91
404.935	-1033.88
405.146	743.75
405.358	-1973.9
405.569	-1539.73
405.78	-2178.7
405.991	-974.49
406.202	-75.43
406.413	-353.96
406.624	-1580.69
406.835	-259.75
407.046	3025.19
407.257	-122.54
407.468	1028.42
407.679	-263.85
407.89	1839.42
408.101	2066.74
408.312	-636.58
408.522	-2041.48
408.733	276.82
408.944	0.34
409.155	-614.05
409.366	1063.24
409.577	-2049.68
409.788	-384.68
409.999	72.02
410.209	-824.99
410.42	-46.76
410.631	-1879.69
410.842	-390.82
411.053	5200.13
411.264	1042.76
411.474	-1216.15
411.685	-87.72
411.896	-1470.1
412.107	-2172.55
412.317	-988.83
412.528	1700.16
412.739	-2309.77
412.949	-1406.61
413.16	-3.75
413.371	2056.5
413.581	1061.19
413.792	-700.06
414.003	3688.73
414.213	1825.08
414.424	-2092.68
414.635	-525.99
414.845	-1191.58
415.056	-77.48
415.266	-1576.59
415.477	-2578.05
415.687	584.01
415.898	665.93
416.109	-1707.66
416.319	377.17
416.53	-2885.25
416.74	178.51
416.951	-1396.37
417.161	39.25
417.372	153.94
417.582	553.29
417.792	1425.73
418.003	2214.2
418.213	-712.35
418.424	530.77
418.634	-1742.48
418.844	1016.13
419.055	1931.58
419.265	-1255.06
419.476	602.44
419.686	-868
419.896	-44.71
420.107	-1218.2
420.317	-863.9
420.527	106.84
420.738	-532.13
420.948	1028.42
421.158	1501.5
421.368	-712.35
421.579	-407.2
421.789	-1244.82
421.999	-3427.96
422.209	-376.48
422.419	-583.33
422.63	-173.74
422.84	-519.84
423.05	-1240.73
423.26	-1134.23
423.47	-165.54
423.681	-2049.68
423.891	854.34
424.101	1630.52
424.311	-986.78
424.521	-265.89
424.731	-835.23
424.941	-818.85
425.151	1745.21
425.361	-1701.52
425.571	-2594.44
425.781	4012.31
425.991	827.72
426.201	1657.15
426.411	278.87
426.621	-1521.3
426.831	-1912.46
427.041	125.27
427.251	-388.77
427.461	1384.77
427.671	1026.37
427.881	-700.06
428.091	0.34
428.301	2390.32
428.511	-11.95
428.721	-3153.53
428.93	-478.88
429.14	-1271.45
429.35	323.92
429.56	-1015.45
429.77	-286.37
429.98	-1347.22
430.189	-1224.34
430.399	2810.15
430.609	1438.02
430.819	368.98
431.029	-1521.3
431.238	-970.4
431.448	-816.8
431.658	-2518.66
431.867	-847.52
432.077	196.95
432.287	-1189.53
432.497	-1040.03
432.706	-179.88
432.916	-421.54
433.125	-2991.74
433.335	-1390.23
433.545	1278.27
433.754	3934.49
433.964	-1267.35
434.174	-1021.6
434.383	2148.66
434.593	-1334.93
434.802	846.15
435.012	-1420.95
435.221	346.45
435.431	-714.4
435.64	-1040.03
435.85	-1187.48
436.059	285.01
436.269	737.61
436.478	-1126.04
436.688	-2305.67
436.897	-878.24
437.107	-2252.42
437.316	28282.79
437.525	121.17
437.735	117.08
437.944	-102.06
438.154	2529.58
438.363	63.83
438.572	2945.32
438.782	178.51
438.991	-872.09
439.2	-491.17
439.41	-1013.4
439.619	-1132.19
439.828	229.71
440.038	207.19
440.247	2181.43
440.456	-1609.36
440.665	475.47
440.875	907.59
441.084	301.39
441.293	-1779.34
441.502	-1195.67
441.711	-1169.05
441.92	450.89
442.13	-628.39
442.339	-1197.72
442.548	-681.63
442.757	1743.16
442.966	-2991.74
443.175	-1156.76
443.384	1507.65
443.593	1534.27
443.803	-2115.21
444.012	-382.63
444.221	-595.62
444.43	4589.84
444.639	450.89
444.848	2216.24
445.057	-1210.01
445.266	-1429.14
445.475	-2406.02
445.684	-1228.44
445.893	2224.44
446.102	127.32
446.311	-3147.39
446.52	26.96
446.728	2908.46
446.937	-2621.06
447.146	-3538.55
447.355	323.92
447.564	-343.72
447.773	1505.6
447.982	1399.1
448.191	590.16
448.399	-1353.37
448.608	-980.64
448.817	-681.63
449.026	1136.96
449.235	-1681.04
449.443	1012.04
449.652	-652.96
449.861	-880.29
450.07	117.08
450.278	1829.18
450.487	-3112.57
450.696	-3.75
450.904	-1328.79
451.113	-865.95
451.322	647.5
451.53	-622.24
451.739	3017
451.948	-1167
452.156	164.18
452.365	4378.9
452.574	725.32
452.782	250.19
452.991	-679.58
453.199	604.49
453.408	186.71
453.616	-1535.64
453.825	1323.33
454.033	1302.85
454.242	3385.63
454.45	3535.14
454.659	473.42
454.867	3875.1
455.076	-1080.99
455.284	-863.9
455.493	-1648.27
455.701	-1130.14
455.91	3217.7
456.118	-933.53
456.326	-2070.16
456.535	2689.32
456.743	1188.16
456.951	-2313.86
457.16	1263.94
457.368	731.47
457.576	-1738.38
457.785	2701.61
457.993	-83.63
458.201	-1552.02
458.41	649.55
458.618	-1089.18
458.826	-282.28
459.034	-2965.12
459.243	-1523.35
459.451	143.7
459.659	-52.91
459.867	-534.18
460.075	-884.38
460.284	-67.24
460.492	-2172.55
460.7	-370.34
460.908	-868
461.116	-2545.28
461.324	-1392.28
461.532	-2418.31
461.741	-2053.77
461.949	-835.23
462.157	2119.99
462.365	63.83
462.573	41.3
462.781	354.64
462.989	-872.09
463.197	-1627.79
463.405	-2164.36
463.613	-3.75
463.821	-2530.95
464.029	76.12
464.237	-1144.47
464.445	-757.41
464.653	891.21
464.861	-364.2
465.069	1360.19
465.276	4780.3
465.484	-792.22
465.692	-511.65
465.9	-927.39
466.108	-718.5
466.316	964.93
466.524	-784.03
466.731	-622.24
466.939	1802.55
467.147	-102.06
467.355	-243.37
467.563	1483.07
467.77	891.21
467.978	-2463.37
468.186	356.69
468.393	2023.73
468.601	-382.63
468.809	-2023.05
469.017	-851.61
469.224	-1930.89
469.432	1038.66
469.64	-1412.76
469.847	-2064.01
470.055	510.29
470.263	-1248.92
470.47	-1302.17
470.678	1245.51
470.885	-161.45
471.093	2560.3
471.3	803.15
471.508	-1171.1
471.716	-566.95
471.923	45.4
472.131	371.02
472.338	-1398.42
472.546	-859.81
472.753	2906.41
472.961	-1461.91
473.168	-302.76
473.375	-437.92
473.583	1261.89
473.79	-585.38
473.998	291.15
474.205	420.17
474.412	1986.87
474.62	-794.27
474.827	-1314.45
475.035	1352
475.242	-855.71
475.449	-1445.52
475.657	4024.6
475.864	3309.86
476.071	-71.34
476.278	-1144.47
476.486	-728.74
476.693	276.82
476.9	330.06
477.107	368.98
477.315	-1044.12
477.522	-161.45
477.729	1585.47
477.936	-495.27
478.143	-1506.96
478.351	1218.88
478.558	-1357.46
478.765	-700.06
478.972	-458.4
479.179	530.77
479.386	823.62
479.593	909.64
479.8	819.53
480.007	-1746.58
480.215	-313
480.422	1159.49
480.629	-2399.88
480.836	1091.91
481.043	3043.62
481.25	-761.5
481.457	-1627.79
481.664	-728.74
481.871	627.02
482.078	-1373.85
482.284	-1482.39
482.491	2132.28
482.698	1782.07
482.905	-1119.9
483.112	-2184.84
483.319	143.7
483.526	135.51
483.733	2416.94
483.94	-2686.59
484.146	-1750.67
484.353	-22.19
484.56	-521.89
484.767	-3214.97
484.974	2105.65
485.18	1698.11
485.387	-478.88
485.594	-1261.21
485.801	1712.44
486.007	282.96
486.214	-997.02
486.421	-1883.79
486.627	-487.08
486.834	534.86
487.041	477.52
487.247	-1355.41
487.454	-1396.37
487.661	1161.54
487.867	328.02
488.074	-1758.86
488.281	1157.44
488.487	-153.26
488.694	-829.09
488.9	-485.03
489.107	-1007.26
489.313	-894.62
489.52	-714.4
489.726	-1576.59
489.933	2916.65
490.139	2867.5
490.346	401.74
490.552	301.39
490.759	-399.01
490.965	164.18
491.172	16726.1
491.378	-558.75
491.584	43.35
491.791	1685.82
491.997	-73.39
492.204	-546.47
492.41	3363.11
492.616	-1875.6
492.823	-1506.96
493.029	-1152.67
493.235	2421.04
493.442	-333.48
493.648	-822.94
493.854	-566.95
494.06	4860.17
494.267	829.77
494.473	-851.61
494.679	-1336.98
494.885	289.1
495.091	3342.63
495.298	817.48
495.504	-2477.7
495.71	-243.37
495.916	-1885.84
496.122	2638.13
496.328	590.16
496.535	702.79
496.741	-464.55
496.947	772.43
497.153	-323.24
497.359	516.43
497.565	508.24
497.771	1741.11
497.977	-151.21
498.183	-872.09
498.389	854.34
498.595	-1564.31
498.801	500.05
499.007	844.1
499.213	-351.91
499.419	-704.16
499.625	-7.85
499.831	3352.87
500.037	-581.28
500.243	-1347.22
500.448	-599.71
500.654	1055.05
500.86	2150.71
501.066	-462.5
501.272	2509.1
501.478	-1949.32
501.684	-695.97
501.889	-1818.25
502.095	-1369.75
502.301	-358.05
502.507	723.27
502.712	-566.95
502.918	-1304.21
503.124	-1177.24
503.33	938.31
503.535	-790.17
503.741	53.59
503.947	-353.96
504.152	-220.84
504.358	-2246.28
504.564	-624.29
504.769	518.48
504.975	4585.74
505.181	-44.71
505.386	-1746.58
505.592	-767.65
505.797	760.14
506.003	-2664.07
506.208	2003.25
506.414	-356.01
506.619	65.88
506.825	543.05
507.03	-2002.57
507.236	-1134.23
507.441	428.37
507.647	-814.75
507.852	-13.99
508.058	1388.86
508.263	1306.95
508.469	-442.02
508.674	-2182.79
508.879	-499.36
509.085	-224.94
509.29	-1582.74
509.495	-1240.73
509.701	-949.92
509.906	958.79
510.111	-499.36
510.317	844.1
510.522	266.58
510.727	2261.3
510.933	-685.73
511.138	479.57
511.343	-781.98
511.548	579.92
511.754	-1482.39
511.959	2453.81
512.164	43.35
512.369	3518.75
512.574	3649.82
512.779	-1431.19
512.985	-534.18
513.19	1161.54
513.395	115.03
513.6	-945.82
513.805	-212.65
514.01	1884.47
514.215	-202.41
514.42	2930.98
514.625	-595.62
514.83	2693.42
515.035	-87.72
515.24	14.68
515.445	3139.88
515.65	2040.12
515.855	291.15
516.06	-335.53
516.265	645.45
516.47	1388.86
516.675	311.63
516.88	-2307.72
517.085	123.22
517.29	-495.27
517.495	491.85
517.7	1861.94
517.904	-206.5
518.109	608.59
518.314	-462.5
518.519	-128.68
518.724	635.21
518.928	729.42
519.133	-315.05
519.338	307.54
519.543	375.12
519.747	944.45
519.952	3025.19
520.157	6289.65
520.362	1063.24
520.566	2965.8
520.771	-2027.15
520.976	1098.05
521.18	3940.63
521.385	-888.48
521.59	-943.77
521.794	414.03
521.999	2240.82
522.203	-929.44
522.408	-478.88
522.612	-890.53
522.817	713.03
523.022	2482.48
523.226	-169.64
523.431	-679.58
523.635	180.56
523.84	2275.63
524.044	-720.54
524.249	1759.55
524.453	3029.29
524.657	207.19
524.862	6088.95
525.066	-954.01
525.271	-214.7
525.475	1298.75
525.679	-9.9
525.884	-1865.36
526.088	1376.58
526.292	2894.12
526.497	237.91
526.701	-806.56
526.905	-261.8
527.11	344.4
527.314	-132.78
527.518	3596.57
527.722	-814.75
527.927	1370.43
528.131	-1967.76
528.335	5474.56
528.539	1780.03
528.744	3084.58
528.948	-1773.2
529.152	-1261.21
529.356	2787.63
529.56	708.94
529.764	242
529.968	147.8
530.173	8186.07
530.377	6498.55
530.581	-1625.75
530.785	1663.29
530.989	-437.92
531.193	403.79
531.397	-1328.79
531.601	278.87
531.805	1872.18
532.009	1790.27
532.213	88.4
532.417	846.15
532.621	2236.72
532.825	3539.23
533.029	96.6
533.233	649.55
533.436	797
533.64	164.18
533.844	1868.09
534.048	-620.19
534.252	1364.29
534.456	3541.28
534.66	2371.89
534.863	119.12
535.067	250.19
535.271	2488.62
535.475	-351.91
535.679	1630.52
535.882	3127.59
536.086	2163
536.29	2271.54
536.493	588.11
536.697	1663.29
536.901	995.65
537.104	2163
537.308	1229.12
537.512	1313.09
537.715	4071.7
537.919	1978.68
538.123	2009.4
538.326	1388.86
538.53	2908.46
538.733	3625.25
538.937	2425.14
539.141	1876.28
539.344	3170.6
539.548	2187.57
539.751	5040.39
539.955	5902.59
540.158	7600.35
540.362	5308.68
540.565	3328.29
540.768	4870.41
540.972	11303.08
541.175	9236.68
541.379	7172.33
541.582	6547.7
541.785	8478.93
541.989	9781.44
542.192	5617.92
542.396	6711.53
542.599	8978.64
542.802	9441.48
543.005	7751.9
543.209	6781.17
543.412	8648.91
543.615	8499.41
543.819	8714.45
544.022	6920.43
544.225	8460.5
544.428	8206.55
544.631	10676.4
544.835	7827.68
545.038	6414.58
545.241	7186.66
545.444	9908.41
545.647	8536.28
545.85	7342.31
546.054	6043.9
546.257	4194.58
546.46	6938.86
546.663	6406.39
546.866	7184.62
547.069	7082.22
547.272	5677.31
547.475	6252.79
547.678	5499.14
547.881	4290.84
548.084	4565.26
548.287	5333.25
548.49	2459.95
548.693	4131.09
548.896	1851.71
549.099	4708.62
549.302	2826.54
549.505	2165.04
549.707	1814.84
549.91	4088.09
550.113	2027.83
550.316	1831.23
550.519	4317.46
550.722	4542.74
550.924	1958.2
551.127	3107.11
551.33	2425.14
551.533	1700.16
551.736	1304.9
551.938	1081.67
552.141	2873.64
552.344	745.8
552.546	3211.56
552.749	1571.13
552.952	1835.32
553.154	1714.49
553.357	2019.64
553.56	1724.73
553.762	7336.17
553.965	6060.28
554.168	2089.27
554.37	4040.98
554.573	2898.22
554.775	4299.03
554.978	3461.41
555.18	348.5
555.383	1126.72
555.585	5241.09
555.788	2709.8
555.99	1376.58
556.193	1935.67
556.395	3293.48
556.598	1165.64
556.8	1626.43
557.003	2093.37
557.205	5810.43
557.407	1507.65
557.61	2031.93
557.812	2390.32
558.015	4604.18
558.217	1171.78
558.419	2337.07
558.622	3916.06
558.824	2500.91
559.026	966.98
559.228	1769.79
559.431	3311.91
559.633	3348.77
559.835	1679.68
560.037	3404.07
560.24	4829.45
560.442	4262.16
560.644	1421.63
560.846	3467.55
561.048	3791.13
561.25	4628.75
561.453	3252.52
561.655	2060.6
561.857	2505.01
562.059	2203.96
562.261	4929.8
562.463	3023.14
562.665	2859.31
562.867	3754.27
563.069	4012.31
563.271	4888.84
563.473	3610.91
563.675	3293.48
563.877	3428.64
564.079	2259.25
564.281	5519.62
564.483	3885.34
564.685	3191.08
564.887	2410.8
565.089	4636.94
565.291	4745.48
565.493	1937.72
565.694	5673.21
565.896	2036.02
566.098	4321.56
566.3	5210.37
566.502	2951.46
566.704	6011.13
566.905	713.03
567.107	1470.78
567.309	1370.43
567.511	4415.76
567.712	1401.15
567.914	2742.57
568.116	469.33
568.317	4892.94
568.519	3158.31
568.721	332.11
568.922	223.57
569.124	2578.73
569.326	5257.48
569.527	2521.39
569.729	1851.71
569.93	6799.6
570.132	2109.75
570.334	4372.75
570.535	1048.9
570.737	2025.78
570.938	6506.74
571.14	2310.45
571.341	3612.96
571.543	7114.98
571.744	2740.52
571.946	4413.71
572.147	1716.54
572.348	5421.31
572.55	4485.39
572.751	5169.41
572.953	2183.48
573.154	4509.97
573.355	6877.42
573.557	9175.24
573.758	3758.36
573.959	3518.75
574.161	5460.23
574.362	5417.22
574.563	7639.26
574.765	6172.92
574.966	6310.13
575.167	2410.8
575.368	5875.96
575.569	3750.17
575.771	6113.53
575.972	3189.03
576.173	4217.11
576.374	5722.37
576.575	5150.98
576.776	1567.04
576.978	2619.69
577.179	3520.8
577.38	4395.28
577.581	2799.91
577.782	3598.62
577.983	5413.12
578.184	5779.71
578.385	3455.26
578.586	4258.07
578.787	2808.11
578.988	4049.18
579.189	1831.23
579.39	2742.57
579.591	3963.16
579.792	2693.42
579.993	5071.11
580.194	4712.72
580.395	6318.32
580.596	4159.77
580.796	5316.87
580.997	3002.66
581.198	3739.93
581.399	5769.47
581.6	6222.07
581.801	2826.54
582.001	6807.79
582.202	2216.24
582.403	1628.48
582.604	7751.9
582.804	3660.06
583.005	4098.33
583.206	926.02
583.407	5325.06
583.607	3146.02
583.808	2855.21
584.009	4964.62
584.209	4894.99
584.41	1544.51
584.61	3406.11
584.811	3223.84
585.012	2525.49
585.212	1794.36
585.413	3428.64
585.613	3369.25
585.814	2064.69
586.014	5150.98
586.215	2472.24
586.415	3459.36
586.616	2163
586.816	2769.2
587.017	4813.07
587.217	1829.18
587.418	6375.67
587.618	2674.99
587.819	2617.65
588.019	1229.12
588.219	637.26
588.42	2826.54
588.62	846.15
588.82	1059.14
589.021	1405.25
589.221	3389.73
589.421	1681.72
589.622	3989.78
589.822	1319.23
590.022	5761.28
590.222	3512.61
590.423	1995.06
590.623	1034.57
590.823	3043.62
591.023	2871.59
591.223	700.75
591.423	5898.49
591.624	2851.11
591.824	2412.85
592.024	1304.9
592.224	2081.08
592.424	5560.58
592.624	2588.97
592.824	3031.34
593.024	2163
593.224	4958.47
593.424	4671.76
593.624	2527.53
593.824	2601.26
594.024	2830.63
594.224	1200.45
594.424	2654.51
594.624	627.02
594.824	1796.41
595.024	1354.05
595.224	2505.01
595.424	850.25
595.624	706.89
595.824	1284.42
596.023	4016.41
596.223	3895.58
596.423	1536.32
596.623	2822.44
596.823	-210.6
597.023	-700.06
597.222	6658.29
597.422	995.65
597.622	-134.82
597.822	1040.71
598.021	2314.55
598.221	753.99
598.421	-560.8
598.62	1519.93
598.82	565.58
599.02	4894.99
599.219	4475.15
599.419	2593.07
599.618	522.57
599.818	2576.69
600.018	-542.37
600.217	1110.34
600.417	4174.1
600.616	1380.67
600.816	1851.71
601.015	1958.2
601.215	1085.76
601.414	584.01
601.614	784.71
601.813	-482.98
602.013	2101.56
602.212	1528.13
602.412	285.01
602.611	2773.29
602.81	2136.37
603.01	3199.27
603.209	1669.44
603.408	-958.11
603.608	2722.09
603.807	1122.63
604.006	6275.32
604.206	229.71
604.405	1438.02
604.604	1831.23
604.803	1464.64
605.003	307.54
605.202	96.6
605.401	889.16
605.6	2500.91
605.8	321.87
605.999	446.8
606.198	1904.95
606.397	2156.85
606.596	905.54
606.795	2763.05
606.994	3586.33
607.193	852.3
607.393	3774.75
607.592	3784.99
607.791	1390.91
607.99	3891.48
608.189	3936.54
608.388	4729.1
608.587	4139.29
608.786	2283.83
608.985	672.08
609.184	2177.33
609.382	3473.7
609.581	2795.82
609.78	4651.28
609.979	4526.35
610.178	2998.57
610.377	2701.61
610.576	500.05
610.775	3346.72
610.973	3252.52
611.172	3897.63
611.371	2877.74
611.57	2150.71
611.769	4960.52
611.967	1524.03
612.166	4768.01
612.365	2613.55
612.564	3078.44
612.762	3344.67
612.961	3485.98
613.16	2318.64
613.358	3045.67
613.557	24.92
613.756	3051.81
613.954	4421.91
614.153	1294.66
614.351	1407.3
614.55	567.63
614.749	3842.33
614.947	1972.54
615.146	805.19
615.344	1962.3
615.543	125.27
615.741	2296.11
615.94	2992.42
616.138	891.21
616.337	3127.59
616.535	1200.45
616.733	8.53
616.932	1544.51
617.13	3758.36
617.329	5351.68
617.527	-902.81
617.725	-1619.6
617.924	-978.59
618.122	446.8
618.32	-786.08
618.519	-1347.22
618.717	2625.84
618.915	2189.62
619.114	1151.3
619.312	88.4
619.51	430.41
619.708	2283.83
619.906	-435.88
620.105	-511.65
620.303	-251.56
620.501	3854.62
620.699	-1646.23
620.897	923.98
621.095	1952.06
621.293	-986.78
621.492	2144.56
621.69	141.65
621.888	1112.39
622.086	3283.24
622.284	1096
622.482	436.56
622.68	837.96
622.878	192.85
623.076	80.21
623.274	166.23
623.472	393.55
623.67	1349.95
623.868	-2420.36
624.065	1050.95
624.263	219.47
624.461	1124.68
624.659	-427.68
624.857	3303.71
625.055	2586.93
625.253	-335.53
625.45	-32.43
625.648	98.64
625.846	330.06
626.044	307.54
626.242	479.57
626.439	2326.83
626.637	758.09
626.835	-30.38
627.032	1980.73
627.23	-1466
627.428	3451.17
627.626	1315.14
627.823	579.92
628.021	3000.62
628.218	2187.57
628.416	1401.15
628.614	-1222.3
628.811	-1603.22
629.009	-644.77
629.206	-269.99
629.404	-1035.93
629.601	262.48
629.799	-1760.91
629.996	3283.24
630.194	1139.01
630.391	987.46
630.589	-597.67
630.786	1954.1
630.984	328.02
631.181	-2053.77
631.378	-622.24
631.576	1884.47
631.773	-2127.5
631.97	-1304.21
632.168	-1531.54
632.365	229.71
632.562	459.09
632.76	-970.4
632.957	547.15
633.154	6.49
633.352	641.36
633.549	-693.92
633.746	2265.39
633.943	1024.33
634.14	-415.4
634.338	2300.21
634.535	-292.52
634.732	-143.02
634.929	3008.81
635.126	905.54
635.323	-13.99
635.52	2281.78
635.717	549.2
635.915	-233.13
636.112	-54.95
636.309	-1812.11
636.506	-444.07
636.703	-2297.48
636.9	-423.59
637.097	5210.37
637.294	360.78
637.491	-972.44
637.688	2359.6
637.884	-1097.37
638.081	-511.65
638.278	-85.67
638.475	-382.63
638.672	-564.9
638.869	-829.09
639.066	5802.24
639.263	772.43
639.459	731.47
639.656	-2313.86
639.853	-1726.1
640.05	15130.73
640.246	1976.63
640.443	24.92
640.64	-2840.19
640.837	389.46
641.033	-1767.06
641.23	-120.49
641.427	4.44
641.623	811.34
641.82	-575.14
642.017	-1158.81
642.213	-456.36
642.41	-448.16
642.606	1145.16
642.803	1327.43
643	401.74
643.196	-1341.08
643.393	2316.59
643.589	473.42
643.786	-1130.14
643.982	4395.28
644.179	1567.04
644.375	-837.28
644.571	-439.97
644.768	-1423
644.964	-85.67
645.161	-278.18
645.357	2642.22
645.553	614.73
645.75	2238.77
645.946	10.58
646.143	-212.65
646.339	356.69
646.535	481.61
646.731	1739.07
646.928	-30.38
647.124	-1674.9
647.32	2529.58
647.516	2105.65
647.713	-1302.17
647.909	24.92
648.105	-538.27
648.301	-2719.36
648.497	352.59
648.693	-607.91
648.89	-368.29
649.086	2.39
649.282	-1134.23
649.478	-515.75
649.674	117.08
649.87	2017.59
650.066	1216.83
650.262	-1066.65
650.458	1874.23
650.654	-1433.24
650.85	217.43
651.046	-540.32
651.242	-44.71
651.438	147.8
651.634	-1678.99
651.83	-954.01
652.026	643.4
652.222	-376.48
652.417	-341.67
652.613	1243.46
652.809	-1644.18
653.005	-933.53
653.201	2455.86
653.397	-1136.28
653.592	-73.39
653.788	-1210.01
653.984	1657.15
654.18	4874.51
654.375	-935.58
654.571	-222.89
654.767	-38.57
654.962	-1074.84
655.158	-2367.11
655.354	-525.99
655.549	1382.72
655.745	1134.92
655.941	3543.33
656.136	-1056.41
656.332	-1478.29
656.527	-126.63
656.723	1626.43
656.918	-2031.24
657.114	-579.23
657.309	-263.85
657.505	966.98
657.7	1454.4
657.896	-1128.09
658.091	-1324.69
658.287	-771.74
658.482	-2254.47
658.678	-1003.16
658.873	352.59
659.068	3330.34
659.264	-472.74
659.459	36378.41
659.654	813.38
659.85	2484.53
660.045	-1586.83
660.24	1943.86
660.436	5357.83
660.631	-294.57
660.826	1911.1
661.021	297.3
661.217	2437.42
661.412	-816.8
661.607	-2211.46
661.802	-394.92
661.997	-353.96
662.192	467.28
662.388	-2612.87
662.583	-675.49
662.778	344.4
662.973	-1826.45
663.168	-2551.43
663.363	-1046.17
663.558	4153.62
663.753	1356.1
663.948	-1998.48
664.143	-1642.13
664.338	305.49
664.533	1042.76
664.728	-571.04
664.923	-1285.78
665.118	45.4
665.313	-1009.31
665.508	1364.29
665.703	1124.68
665.897	1308.99
666.092	334.16
666.287	627.02
666.482	-800.41
666.677	1986.87
666.872	1503.55
667.066	-960.16
667.261	-1160.86
667.456	88.4
667.651	1499.45
667.845	1890.62
668.04	641.36
668.235	-1523.35
668.429	1403.2
668.624	264.53
668.819	-724.64
669.013	-1617.55
669.208	698.7
669.402	-1531.54
669.597	110.93
669.792	-814.75
669.986	2705.71
670.181	-2178.7
670.375	291.15
670.57	-1840.78
670.764	-1095.32
670.959	-435.88
671.153	4.44
671.348	-206.5
671.542	2691.37
671.737	-2025.1
671.931	-2559.62
672.125	495.95
672.32	1218.88
672.514	1356.1
672.709	-1494.68
672.903	-87.72
673.097	-736.93
673.291	-1236.63
673.486	1452.35
673.68	98.64
673.874	-972.44
674.069	-1023.64
674.263	827.72
674.457	1472.83
674.651	821.58
674.845	-745.12
675.04	3885.34
675.234	-1115.8
675.428	-104.11
675.622	-1246.87
675.816	-1724.05
676.01	-773.79
676.204	-229.03
676.398	-73.39
676.592	-655.01
676.787	-824.99
676.981	51.54
677.175	117.08
677.369	-3329.66
677.563	4.44
677.757	-95.91
677.95	-1316.5
678.144	-2817.66
678.338	-908.96
678.532	672.08
678.726	-2430.6
678.92	2820.39
679.114	92.5
679.308	112.98
679.502	-3702.39
679.695	-2055.82
679.889	-554.66
680.083	-2524.8
680.277	-2348.68
680.471	-405.16
680.664	-1498.77
680.858	553.29
681.052	-108.2
681.245	-1185.43
681.439	739.66
681.633	-978.59
681.826	-358.05
682.02	-980.64
682.214	786.76
682.407	-1291.93
682.601	-786.08
682.795	-433.83
682.988	-614.05
683.182	-1048.22
683.375	-577.19
683.569	-784.03
683.762	864.58
683.956	2072.89
684.149	1876.28
684.343	1765.69
684.536	-1285.78
684.73	119.12
684.923	-2385.54
685.116	-1961.61
685.31	2265.39
685.503	889.16
685.696	-405.16
685.89	1063.24
686.083	-1654.42
686.276	-1035.93
686.47	117.08
686.663	-517.79
686.856	-364.2
687.05	1431.87
687.243	-620.19
687.436	1345.86
687.629	1773.88
687.822	465.23
688.016	-841.37
688.209	-1029.79
688.402	479.57
688.595	-116.39
688.788	-2197.13
688.981	-1648.27
689.174	2801.96
689.367	74.07
689.561	-818.85
689.754	-2473.6
689.947	-515.75
690.14	41.3
690.333	-3309.18
690.526	-796.32
690.719	1622.33
690.912	1894.71
691.104	258.39
691.297	-269.99
691.49	174.42
691.683	-939.68
691.876	-2948.73
692.069	2728.24
692.262	-114.34
692.455	444.75
692.647	-462.5
692.84	-1572.5
693.033	848.2
693.226	438.61
693.419	-1461.91
693.611	-751.26
693.804	112.98
693.997	532.81
694.189	-231.08
694.382	-1334.93
694.575	2994.47
694.767	-179.88
694.96	-1431.19
695.153	-532.13
695.345	379.22
695.538	1816.89
695.731	409.94
695.923	-536.23
696.116	141.65
696.308	1513.79
696.501	45.4
696.693	2316.59
696.886	-1001.12
697.078	-2070.16
697.271	538.96
697.463	792.91
697.655	-93.87
697.848	49.49
698.04	-1128.09
698.233	-2188.94
698.425	-650.91
698.617	1368.38
698.81	-1222.3
699.002	-868
699.194	1929.53
699.387	860.49
699.579	-1115.8
699.771	-1756.82
699.963	-2788.99
700.156	-1822.35
700.348	983.37
700.54	205.14
700.732	-1093.27
700.924	-554.66
701.117	-876.19
701.309	-1029.79
701.501	-2250.38
701.693	4249.88
701.885	-927.39
702.077	1257.79
702.269	512.33
702.461	1876.28
702.653	235.86
702.845	-622.24
703.037	487.76
703.229	2117.94
703.421	-949.92
703.613	-1316.5
703.805	3469.6
703.997	502.09
704.189	1179.97
704.381	-937.63
704.573	3866.91
704.765	-781.98
704.957	1610.04
705.148	-61.1
705.34	-894.62
705.532	53.59
705.724	-1283.74
705.916	-1834.64
706.107	1855.8
706.299	428.37
706.491	2132.28
706.682	1689.92
706.874	-646.82
707.066	-331.43
707.258	-1498.77
707.449	-509.6
707.641	5687.55
707.832	43.35
708.024	-693.92
708.216	-212.65
708.407	815.43
708.599	-542.37
708.79	1812.79
708.982	-1615.51
709.173	-419.49
709.365	-988.83
709.556	-214.7
709.748	-462.5
709.939	219.47
710.131	700.75
710.322	-2313.86
710.514	2613.55
710.705	-624.29
710.896	516.43
711.088	569.68
711.279	594.25
711.47	1829.18
711.662	1241.41
711.853	-1359.51
712.044	-2346.63
712.236	360.78
712.427	-3.75
712.618	-2494.08
712.809	-1126.04
713	-474.79
713.192	1505.6
713.383	-743.07
713.574	414.03
713.765	37.2
713.956	-919.2
714.147	1939.77
714.338	-1666.71
714.53	1646.91
714.721	2425.14
714.912	-1195.67
715.103	-2211.46
715.294	753.99
715.485	1061.19
715.676	-2324.1
715.867	-2844.29
716.058	-695.97
716.249	1519.93
716.44	-319.14
716.63	-1609.36
716.821	-310.95
717.012	1442.11
717.203	-1310.36
717.394	-665.25
717.585	-2391.69
717.776	-835.23
717.966	-1085.08
718.157	-1357.46
718.348	573.77
718.539	82.26
718.73	1194.31
718.92	2332.98
719.111	-980.64
719.302	424.27
719.492	-970.4
719.683	729.42
719.874	-1126.04
720.064	4176.15
720.255	-2064.01
720.446	-302.76
720.636	1694.01
720.827	1300.8
721.017	565.58
721.208	-497.32
721.398	-968.35
721.589	1065.29
721.779	305.49
721.97	-3323.51
722.16	-1404.57
722.351	-2176.65
722.541	-974.49
722.732	1141.06
722.922	1294.66
723.112	1878.33
723.303	-1791.63
723.493	-1728.14
723.683	1300.8
723.874	2355.51
724.064	622.92
724.254	2191.67
724.445	-927.39
724.635	1116.48
724.825	-2897.53
725.015	-882.33
725.206	-499.36
725.396	1544.51
725.586	-1511.06
725.776	1003.85
725.966	3881.24
726.157	1407.3
726.347	2165.04
726.537	-294.57
726.727	2038.07
726.917	-1322.65
727.107	-913.05
727.297	-2893.44
727.487	2296.11
727.677	-1037.98
727.867	274.77
728.057	-265.89
728.247	907.59
728.437	817.48
728.627	-1003.16
728.817	-732.83
729.007	430.41
729.197	749.9
729.387	-743.07
729.576	-396.96
729.766	1702.2
729.956	-417.44
730.146	-919.2
730.336	-1767.06
730.525	-466.6
730.715	-1121.95
730.905	-9.9
731.095	-816.8
731.284	786.76
731.474	1608
731.664	-745.12
731.853	-2494.08
732.043	-1316.5
732.233	-1762.96
732.422	1571.13
732.612	-1472.15
732.802	397.65
732.991	153.94
733.181	-3010.17
733.37	-1478.29
733.56	-767.65
733.749	854.34
733.939	-2182.79
734.128	1102.15
734.318	2273.59
734.507	-800.41
734.697	-2391.69
734.886	1579.33
735.076	-1824.4
735.265	1753.4
735.454	454.99
735.644	-1810.06
735.833	-1293.97
736.022	-42.67
736.212	-986.78
736.401	-745.12
736.59	1132.87
736.779	-546.47
736.969	-2172.55
737.158	244.05
737.347	-1468.05
737.536	-151.21
737.726	-1468.05
737.915	1179.97
738.104	850.25
738.293	-743.07
738.482	-5.8
738.671	-1400.47
738.86	-2432.65
739.049	1044.81
739.238	-1287.83
739.427	-794.27
739.616	-1982.09
739.806	-1785.49
739.995	-3120.76
740.183	-2121.35
740.372	-145.06
740.561	-612
740.75	-3567.22
740.939	59.73
741.128	192.85
741.317	1147.2
741.506	-1111.71
741.695	242
741.884	921.93
742.072	1784.12
742.261	-132.78
742.45	-544.42
742.639	344.4
742.828	440.65
743.016	-773.79
743.205	-1818.25
743.394	-1560.21
743.582	1153.35
743.771	-118.44
743.96	610.64
744.148	35.16
744.337	-61.1
744.526	276.82
744.714	-986.78
744.903	3883.29
745.091	-259.75
745.28	1898.81
745.468	776.52
745.657	287.06
745.845	37.2
746.034	-1031.83
746.222	-267.94
746.411	-163.5
746.599	483.66
746.788	-30.38
746.976	-1523.35
747.165	-853.66
747.353	-196.26
747.541	3940.63
747.73	-2526.85
747.918	1028.42
748.106	627.02
748.295	1421.63
748.483	409.94
748.671	-280.23
748.859	-386.72
749.048	1319.23
749.236	-603.81
749.424	-1107.61
749.612	1466.69
749.8	-706.21
749.989	-661.15
750.177	33.11
750.365	643.4
750.553	289.1
750.741	-2469.51
750.929	3402.02
751.117	-659.1
751.305	-13.99
751.493	-1117.85
751.681	-2039.44
751.869	-413.35
752.057	577.87
752.245	-1076.89
752.433	1122.63
752.621	-140.97
752.809	1132.87
752.997	805.19
753.185	452.94
753.373	-478.88
753.56	-716.45
753.748	790.86
753.936	-321.19
754.124	348.5
754.312	-894.62
754.499	2103.61
754.687	620.88
754.875	1229.12
755.063	-843.42
755.25	1278.27
755.438	1874.23
755.626	1012.04
755.813	-1054.36
756.001	1263.94
756.189	-1115.8
756.376	-562.85
756.564	-181.93
756.751	942.41
756.939	-863.9
757.127	2492.72
757.314	-118.44
757.502	-1439.38
757.689	1890.62
757.877	1116.48
758.064	1214.79
758.251	-988.83
758.439	1280.32
758.626	2345.27
758.814	-769.69
759.001	1872.18
759.188	1712.44
759.376	-1986.19
759.563	1253.7
759.75	1579.33
759.938	-663.2
760.125	-437.92
760.312	-52.91
760.5	-300.71
760.687	991.56
760.874	-1035.93
761.061	1155.4
761.248	-2457.22
761.436	3817.76
761.623	-493.22
761.81	448.85
761.997	1231.17
762.184	-591.52
762.371	-683.68
762.558	-288.42
762.745	1775.93
762.932	0.34
763.119	674.12
763.306	168.27
763.493	405.84
763.68	454.99
763.867	1630.52
764.054	-1459.86
764.241	-573.09
764.428	1802.55
764.615	-32.43
764.802	10.58
764.989	-1123.99
765.176	180.56
765.362	1087.81
765.549	-822.94
765.736	7921.88
765.923	1808.7
766.11	1548.61
766.296	-5.8
766.483	-2268.81
766.67	201.04
766.857	1233.22
767.043	-1132.19
767.23	598.35
767.417	1880.38
767.603	872.78
767.79	-468.64
767.976	2574.64
768.163	2150.71
768.35	891.21
768.536	-351.91
768.723	-353.96
768.909	1827.13
769.096	2539.82
769.282	49.49
769.469	-603.81
769.655	2720.04
769.842	954.69
770.028	-1621.65
770.214	180.56
770.401	301.39
770.587	-640.67
770.774	-2893.44
770.96	-2993.79
771.146	444.75
771.333	846.15
771.519	-734.88
771.705	244.05
771.891	-1349.27
772.078	4950.28
772.264	1102.15
772.45	-595.62
772.636	92.5
772.822	-616.1
773.009	3422.5
773.195	729.42
773.381	729.42
773.567	1200.45
773.753	-968.35
773.939	-1748.62
774.125	-1990.28
774.311	-34.47
774.497	-1816.21
774.683	-943.77
774.869	1597.76
775.055	2943.27
775.241	-1230.49
775.427	463.18
775.613	-1058.46
775.799	2107.7
775.985	-1304.21
776.171	-214.7
776.357	14.68
776.543	10.58
776.729	-872.09
776.914	-243.37
777.1	1001.8
777.286	3694.88
777.472	-714.4
777.657	-661.15
777.843	2519.34
778.029	2433.33
778.215	170.32
778.4	-368.29
778.586	2842.92
778.772	1319.23
778.957	801.1
779.143	-1595.03
779.329	-538.27
779.514	-1453.72
779.7	-384.68
779.885	-2436.74
780.071	192.85
780.256	420.17
780.442	-32.43
780.627	-2365.06
780.813	842.06
780.998	1677.63
781.184	541.01
781.369	-1605.27
781.555	809.29
781.74	-407.2
781.925	1622.33
782.111	-1218.2
782.296	-464.55
782.481	278.87
782.667	-491.17
782.852	1034.57
783.037	-652.96
783.223	-595.62
783.408	-597.67
783.593	768.33
783.778	-1402.52
783.963	127.32
784.149	905.54
784.334	-730.78
784.519	-269.99
784.704	-1861.26
784.889	-22.19
785.074	-1451.67
785.259	-685.73
785.444	2251.06
785.629	-1853.07
785.814	-2477.7
785.999	-933.53
786.184	2623.79
786.369	-1205.91
786.554	-2528.9
786.739	946.5
786.924	242
787.109	-272.04
787.294	1253.7
787.479	936.26
787.664	-362.15
787.849	971.08
788.034	596.3
788.218	-18.09
788.403	-63.15
788.588	872.78
788.773	379.22
788.957	-1185.43
789.142	1298.75
789.327	125.27
789.512	-945.82
789.696	2752.81
789.881	2380.08
790.066	-317.09
790.25	2580.78
790.435	-192.17
790.619	1601.85
790.804	680.27
790.989	16.73
791.173	3019.05
791.358	1053
791.542	-943.77
791.727	-313
791.911	-628.39
792.096	-1306.26
792.28	-698.02
792.465	-446.12
792.649	-1044.12
792.833	610.64
793.018	-708.26
793.202	731.47
793.386	2345.27
793.571	1507.65
793.755	112.98
793.939	-949.92
794.124	-292.52
794.308	289.1
794.492	-599.71
794.676	-1093.27
794.861	-313
795.045	1042.76
795.229	-2252.42
795.413	749.9
795.597	-716.45
795.781	108.88
795.966	2433.33
796.15	-46.76
796.334	3987.74
796.518	2470.19
796.702	-1101.47
796.886	541.01
797.07	2265.39
797.254	1231.17
797.438	-591.52
797.622	-528.03
797.806	188.75
797.99	1200.45
798.174	319.82
798.358	2382.13
798.541	2074.93
798.725	2801.96
798.909	8.53
799.093	895.3
799.277	332.11
799.461	1694.01
799.644	-2915.97
799.828	80.21
800.012	2324.79
800.196	131.41
800.379	104.79
800.563	-1429.14
800.747	1990.97
800.93	-304.81
801.114	-452.26
801.298	-1064.6
801.481	2361.65
801.665	2158.9
801.848	-1752.72
802.032	-366.25
802.216	3485.98
802.399	-108.2
802.583	-1359.51
802.766	-2035.34
802.95	678.22
803.133	2013.49
803.317	-1355.41
803.5	-1785.49
803.683	43.35
803.867	-1392.28
804.05	1343.81
804.233	2335.03
804.417	2957.61
804.6	-442.02
804.783	358.74
804.967	2050.36
805.15	762.19
805.333	457.04
805.517	897.35
805.7	-1439.38
805.883	24.92
806.066	1468.73
806.249	2048.31
806.432	-1535.64
806.616	354.64
806.799	-1506.96
806.982	-810.65
807.165	584.01
807.348	436.56
807.531	-1179.29
807.714	-665.25
807.897	500.05
808.08	893.26
808.263	1651
808.446	1380.67
808.629	272.72
808.812	-751.26
808.995	90.45
809.178	2062.65
809.361	1524.03
809.544	1446.21
809.726	2838.83
809.909	1640.76
810.092	1053
810.275	1532.22
810.458	3598.62
810.64	1769.79
810.823	1438.02
811.006	534.86
811.189	2804.01
811.371	-564.9
811.554	151.89
811.737	1720.64
811.919	1892.66
812.102	-581.28
812.285	-1752.72
812.467	1046.85
812.65	-5.8
812.832	-902.81
813.015	2054.45
813.197	1681.72
813.38	1581.37
813.562	2552.11
813.745	-1375.89
813.927	-1670.8
814.11	1741.11
814.292	-216.74
814.475	-1187.48
814.657	-401.06
814.839	844.1
815.022	-1177.24
815.204	3318.05
815.386	2548.01
815.569	1814.84
815.751	-2084.49
815.933	1853.75
816.116	1458.5
816.298	1427.78
816.48	-183.98
816.662	-669.34
816.844	360.78
817.027	166.23
817.209	-919.2
817.391	-1388.18
817.573	-239.27
817.755	-120.49
817.937	248.15
818.119	-587.43
818.301	-835.23
818.483	-143.02
818.665	-683.68
818.847	989.51
819.029	342.35
819.211	-1490.58
819.393	90.45
819.575	2705.71
819.757	1970.49
819.939	747.85
820.121	-13.99
820.303	555.34
820.485	3154.21
820.666	2642.22
820.848	2728.24
821.03	0.34
821.212	1761.59
821.394	-1832.59
821.575	966.98
821.757	2283.83
821.939	565.58
822.121	723.27
822.302	3033.38
822.484	1610.04
822.666	-2219.66
822.847	-521.89
823.029	-2858.62
823.21	1218.88
823.392	-2033.29
823.573	-179.88
823.755	-1492.63
823.937	-1308.31
824.118	-1205.91
824.3	4888.84
824.481	-1160.86
824.662	-796.32
824.844	14.68
825.025	1159.49
825.207	-1900.17
825.388	-89.77
825.569	-1480.34
825.751	-732.83
825.932	2462
826.113	-1924.75
826.295	1214.79
826.476	555.34
826.657	-202.41
826.839	-509.6
827.02	612.68
827.201	3457.31
827.382	-218.79
827.563	1081.67
827.744	-655.01
827.926	831.82
828.107	1782.07
828.288	-1560.21
828.469	448.85
828.65	1182.02
828.831	-2102.92
829.012	-48.81
829.193	1972.54
829.374	-859.81
829.555	2152.76
829.736	5345.54
829.917	3184.93
830.098	1562.94
830.279	-2320.01
830.46	-980.64
830.641	108.88
830.822	-24.23
831.002	1814.84
831.183	-884.38
831.364	1427.78
831.545	1212.74
831.726	221.52
831.906	-71.34
832.087	1059.14
832.268	942.41
832.449	2154.8
832.629	-1957.52
832.81	-802.46
832.991	-1134.23
833.171	825.67
833.352	577.87
833.532	1886.52
833.713	-595.62
833.894	-30.38
834.074	-2080.39
834.255	-966.3
834.435	-886.43
834.616	-777.89
834.796	-302.76
834.977	1065.29
835.157	3371.3
835.338	-1003.16
835.518	-1906.32
835.698	182.61
835.879	-990.88
836.059	213.33
836.239	100.69
836.42	2.39
836.6	545.1
836.78	-2098.83
836.961	-906.91
837.141	1462.59
837.321	-1304.21
837.501	3477.79
837.682	-779.93
837.862	-224.94
838.042	5646.59
838.222	-804.51
838.402	-536.23
838.582	-310.95
838.763	547.15
838.943	-433.83
839.123	1986.87
839.303	285.01
839.483	1413.44
839.663	-2645.63
839.843	12716.18
840.023	1679.68
840.203	1536.32
840.383	-417.44
840.563	-671.39
840.742	35.16
840.922	-1005.21
841.102	1073.48
841.282	-112.3
841.462	139.6
841.642	-261.8
841.822	-1654.42
842.001	-2541.19
842.181	545.1
842.361	899.4
842.541	1696.06
842.72	704.84
842.9	-409.25
843.08	354.64
843.259	-519.84
843.439	-269.99
843.619	-1031.83
843.798	29.01
843.978	1085.76
844.157	-745.12
844.337	1214.79
844.517	-808.61
844.696	2410.8
844.876	1321.28
845.055	-1285.78
845.235	1200.45
845.414	274.77
845.593	-1388.18
845.773	-769.69
845.952	-2582.15
846.132	-1814.16
846.311	-1586.83
846.49	708.94
846.67	942.41
846.849	-923.29
847.028	-1502.87
847.208	1016.13
847.387	-1021.6
847.566	2738.48
847.745	-1281.69
847.924	811.34
848.104	815.43
848.283	766.28
848.462	1616.19
848.641	1882.42
848.82	-104.11
848.999	2441.52
849.178	-509.6
849.358	1380.67
849.537	69.97
849.716	-796.32
849.895	-1631.89
850.074	1837.37
850.253	2128.18
850.432	444.75
850.61	39.25
850.789	-612
850.968	2236.72
851.147	2101.56
851.326	-1037.98
851.505	-138.92
851.684	420.17
851.863	1919.29
852.041	559.44
852.22	-353.96
852.399	-872.09
852.578	1001.8
852.756	-1891.98
852.935	-458.4
853.114	1581.37
853.293	-1533.59
853.471	3363.11
853.65	670.03
853.828	-478.88
854.007	-1269.4
854.186	502.09
854.364	1595.71
854.543	573.77
854.721	-585.38
854.9	1003.85
855.078	2203.96
855.257	-687.78
855.435	-2977.41
855.614	373.07
855.792	-577.19
855.971	-589.47
856.149	-1992.33
856.327	749.9
856.506	88.4
856.684	-781.98
856.862	-1105.56
857.041	-3434.1
857.219	1562.94
857.397	-911
857.576	-736.93
857.754	-757.41
857.932	1245.51
858.11	-360.1
858.288	-476.84
858.467	-2320.01
858.645	-2066.06
858.823	-534.18
859.001	491.85
859.179	-1658.51
859.357	-1076.89
859.535	592.2
859.713	1474.88
859.891	846.15
860.069	3424.55
860.247	-827.04
860.425	-2281.1
860.603	467.28
860.781	1814.84
860.959	323.92
861.137	-2526.85
861.315	-1492.63
861.493	168.27
861.67	1556.8
861.848	1286.47
862.026	-906.91
862.204	-884.38
862.382	-530.08
862.559	-347.81
862.737	733.51
862.915	1161.54
863.093	-669.34
863.27	1739.07
863.448	1421.63
863.626	18.77
863.803	-356.01
863.981	-1296.02
864.158	-2487.94
864.336	-1066.65
864.514	-1539.73
864.691	-2029.2
864.869	-1089.18
865.046	-1681.04
865.224	41.3
865.401	1292.61
865.578	-1156.76
865.756	2201.91
865.933	-2473.6
866.111	1474.88
866.288	-1296.02
866.465	-597.67
866.643	-1513.11
866.82	-1138.33
866.997	-954.01
867.175	-71.34
867.352	-790.17
867.529	-2825.86
867.706	-1162.9
867.884	-71.34
868.061	-480.93
868.238	-1023.64
868.415	-1664.66
868.592	-1216.15
868.77	-1064.6
868.947	1182.02
869.124	-964.25
869.301	-2256.52
869.478	10.58
869.655	-3165.82
869.832	-13.99
870.009	2502.96
870.186	2519.34
870.363	-97.96
870.54	-3.75
870.717	-585.38
870.894	-280.23
871.071	649.55
871.247	-1769.1
871.424	-1007.26
871.601	-378.53
871.778	-1019.55
871.955	-257.7
872.132	217.43
872.308	-122.54
872.485	-315.05
872.662	-808.61
872.839	1728.83
873.015	-892.57
873.192	188.75
873.369	454.99
873.545	-777.89
873.722	-5.8
873.898	20.82
874.075	-677.54
874.252	129.36
874.428	-419.49
874.605	-61.1
874.781	-2797.18
874.958	-1451.67
875.134	629.07
875.311	541.01
875.487	524.62
875.663	2165.04
875.84	26.96
876.016	901.45
876.193	741.71
876.369	-1107.61
876.545	-997.02
876.722	-1230.49
876.898	-100.01
877.074	520.53
877.25	1050.95
877.427	5677.31
877.603	-624.29
877.779	-540.32
877.955	-358.05
878.132	1990.97
878.308	1751.35
878.484	3146.02
878.66	-1371.8
878.836	127.32
879.012	-140.97
879.188	477.52
879.364	51.54
879.54	-646.82
879.716	-1734.29
879.892	86.36
880.068	1546.56
880.244	3481.89
880.42	-1046.17
880.596	-562.85
880.772	-683.68
880.948	-1035.93
881.124	805.19
881.3	4909.32
881.475	-52.91
881.651	-114.34
881.827	-544.42
882.003	-151.21
882.178	-2274.95
882.354	-624.29
882.53	-1121.95
882.706	-171.69
882.881	418.13
883.057	-1609.36
883.233	-136.87
883.408	1751.35
883.584	-949.92
883.759	-1678.99
883.935	-1808.02
884.111	-1877.65
884.286	-659.1
884.462	-2453.13
884.637	-695.97
884.813	-1760.91
884.988	-515.75
885.164	3070.25
885.339	-1447.57
885.514	1198.4
885.69	-1144.47
885.865	-1910.41
886.04	659.79
886.216	6.49
886.391	790.86
886.566	-151.21
886.742	-2139.79
886.917	-95.91
887.092	2103.61
887.267	-2004.62
887.443	-2356.87
887.618	-1367.7
887.793	-1033.88
887.968	65.88
888.143	-1906.32
888.318	-218.79
888.494	766.28
888.669	-284.33
888.844	-265.89
889.019	-628.39
889.194	-761.5
889.369	-1203.86
889.544	-978.59
889.719	942.41
889.894	2181.43
890.069	319.82
890.243	704.84
890.418	-779.93
890.593	-1414.81
890.768	-263.85
890.943	1646.91
891.118	-605.86
891.293	-136.87
891.467	-1379.99
891.642	2910.5
891.817	-683.68
891.992	55.64
892.166	-1427.09
892.341	1141.06
892.516	-247.46
892.69	-108.2
892.865	-2268.81
893.04	-456.36
893.214	1114.44
893.389	489.81
893.563	2672.94
893.738	3057.96
893.912	-1080.99
894.087	149.84
894.261	1192.26
894.436	-1451.67
894.61	2636.08
894.785	-140.97
894.959	-237.22
895.134	1691.96
895.308	-1607.31
895.482	885.06
895.657	-1498.77
895.831	-1197.72
896.005	5626.11
896.18	-798.37
896.354	-22.19
896.528	-2002.57
896.702	-13.99
896.877	1700.16
897.051	-1916.56
897.225	246.1
897.399	362.83
897.573	-911
897.747	209.23
897.922	-341.67
898.096	1720.64
898.27	-1552.02
898.444	-722.59
898.618	244.05
898.792	26.96
898.966	90.45
899.14	549.2
899.314	801.1
899.488	2152.76
899.662	180.56
899.835	119.12
900.009	184.66
900.183	-1656.47
900.357	3651.87
900.531	-884.38
900.705	-806.56
900.878	-1775.25
901.052	-935.58
901.226	1030.47
901.4	414.03
901.573	-898.72
901.747	-1392.28
901.921	-136.87
902.095	262.48
902.268	1771.83
902.442	-1185.43
902.615	-2107.02
902.789	1245.51
902.963	5744.89
903.136	-429.73
903.31	2455.86
903.483	-1474.2
903.657	1548.61
903.83	309.58
904.004	-2729.6
904.177	278.87
904.35	-534.18
904.524	-2217.61
904.697	250.19
904.871	207.19
905.044	1161.54
905.217	4755.72
905.391	3146.02
905.564	1009.99
905.737	319.82
905.91	-413.35
906.084	-2363.01
906.257	518.48
906.43	-2338.44
906.603	137.56
906.776	-3335.8
906.949	-1056.41
907.123	-1287.83
907.296	-511.65
907.469	2240.82
907.642	-452.26
907.815	1349.95
907.988	-138.92
908.161	-990.88
908.334	-982.68
908.507	944.45
908.68	651.6
908.853	127.32
909.026	-626.34
909.199	-394.92
909.371	2228.53
909.544	1630.52
909.717	-93.87
909.89	-1394.33
910.063	-1293.97
910.236	160.08
910.408	1145.16
910.581	-2207.37
910.754	-2277
910.927	-2825.86
911.099	246.1
911.272	454.99
911.445	-5.8
911.617	-517.79
911.79	1886.52
911.962	-442.02
912.135	-863.9
912.308	-1.71
912.48	-1894.03
912.653	-1330.84
912.825	-861.85
912.998	-693.92
913.17	1261.89
913.343	1491.26
913.515	-757.41
913.687	-1627.79
913.86	-42.67
914.032	1702.2
914.205	-622.24
914.377	-143.02
914.549	-3047.04
914.721	524.62
914.894	-1576.59
915.066	-544.42
915.238	-1638.03
915.41	2156.85
915.583	231.76
915.755	-1801.87
915.927	72.02
916.099	1114.44
916.271	-784.03
916.443	-1916.56
916.616	-2213.51
916.788	22110.21
916.96	2314.55
917.132	-3694.19
917.304	-269.99
917.476	1784.12
917.648	172.37
917.82	-2981.5
917.992	1055.05
918.164	1089.86
918.335	282.96
918.507	1255.75
918.679	-2444.93
918.851	1685.82
919.023	-573.09
919.195	-13.99
919.366	-2098.83
919.538	-2619.01
919.71	-1572.5
919.882	-1367.7
920.053	-1834.64
920.225	-1193.62
920.397	1421.63
920.568	-1611.41
920.74	-1293.97
920.912	-1148.57
921.083	-1582.74
921.255	-2016.91
921.426	-2055.82
921.598	-151.21
921.77	-921.24
921.941	-2033.29
922.113	-1840.78
922.284	1366.34
922.455	-1093.27
922.627	-2258.57
922.798	-2035.34
922.97	-1517.2
923.141	-1382.04
923.312	-3495.54
923.484	641.36
923.655	-2487.94
923.826	682.31
923.998	-1121.95
924.169	813.38
924.34	-1654.42
924.511	29.01
924.683	-384.68
924.854	-1181.34
925.025	-276.13
925.196	1147.2
925.367	772.43
925.538	254.29
925.709	-231.08
925.881	366.93
926.052	-1427.09
926.223	-714.4
926.394	917.83
926.565	-906.91
926.736	-3477.11
926.907	-1805.97
927.078	528.72
927.248	1943.86
927.419	770.38
927.59	-2756.22
927.761	792.91
927.932	749.9
928.103	-411.3
928.274	-1336.98
928.444	-624.29
928.615	-1144.47
928.786	-1416.85
928.957	-2133.64
929.127	-1146.52
929.298	110.93
929.469	-1287.83
929.639	-181.93
929.81	-251.56
929.981	-110.25
930.151	305.49
930.322	3526.94
930.492	616.78
930.663	3326.24
930.833	-1746.58
931.004	-411.3
931.174	405.84
931.345	106.84
931.515	-2014.86
931.686	-323.24
931.856	2091.32
932.027	-1988.24
932.197	948.55
932.367	-1701.52
932.538	1315.14
932.708	-1078.94
932.878	-116.39
933.048	-736.93
933.219	-1240.73
933.389	1835.32
933.559	-1482.39
933.729	-1832.59
933.9	428.37
934.07	-1969.8
934.24	-2451.08
934.41	78.16
934.58	-143.02
934.75	713.03
934.92	-2940.54
935.09	180.56
935.26	-1187.48
935.43	2324.79
935.6	-900.76
935.77	661.84
935.94	364.88
936.11	-1238.68
936.28	-1541.78
936.45	917.83
936.62	188.75
936.79	567.63
936.96	-761.5
937.129	-847.52
937.299	170.32
937.469	18.77
937.639	-65.19
937.808	-781.98
937.978	-2254.47
938.148	1435.97
938.317	-124.58
938.487	389.46
938.657	-1394.33
938.826	-1472.15
938.996	-685.73
939.166	-3614.32
939.335	-2240.14
939.505	33.11
939.674	-1267.35
939.844	-1920.65
940.013	184.66
940.183	-2111.11
940.352	-2004.62
940.522	-650.91
940.691	-1091.23
940.86	649.55
941.03	-986.78
941.199	-3.75
941.368	340.3
941.538	1233.22
941.707	-1801.87
941.876	-515.75
942.046	813.38
942.215	-91.82
942.384	-2047.63
942.553	-462.5
942.722	-747.17
942.892	1718.59
943.061	-2801.28
943.23	371.02
943.399	3447.07
943.568	-575.14
943.737	1980.73
943.906	-38.57
944.075	-1482.39
944.244	1466.69
944.413	-847.52
944.582	-2664.07
944.751	8.53
944.92	-532.13
945.089	543.05
945.258	-753.31
945.427	-542.37
945.596	-564.9
945.764	-495.27
945.933	-1234.58
946.102	940.36
946.271	-681.63
946.44	-736.93
946.608	-1449.62
946.777	-980.64
946.946	-741.02
947.114	2015.54
947.283	-841.37
947.452	-1713.81
947.62	-1152.67
947.789	737.61
947.958	-1126.04
948.126	291.15
948.295	82.26
948.463	-945.82
948.632	-994.97
948.8	-874.14
948.969	-1773.2
949.137	-999.07
949.305	-1709.71
949.474	760.14
949.642	735.56
949.811	430.41
949.979	-509.6
950.147	-2068.11
950.316	-2021
950.484	-2205.32
950.652	-1433.24
950.82	1257.79
950.989	-2840.19
951.157	-1709.71
951.325	-2152.07
951.493	1335.62
951.661	661.84
951.83	649.55
951.998	-2592.39
952.166	-673.44
952.334	-1767.06
952.502	2973.99
952.67	977.22
952.838	586.06
953.006	2568.49
953.174	-100.01
953.342	190.8
953.51	-419.49
953.678	-661.15
953.846	-2598.53
954.014	-405.16
954.181	2136.37
954.349	-1482.39
954.517	-1787.54
954.685	-1916.56
954.853	-1214.1
955.02	-1676.95
955.188	-2209.42
955.356	-1361.56
955.524	1157.44
955.691	-614.05
955.859	-1808.02
956.027	-659.1
956.194	2636.08
956.362	-988.83
956.529	717.13
956.697	-1334.93
956.865	285.01
957.032	1491.26
957.2	-1394.33
957.367	-2127.5
957.535	409.94
957.702	768.33
957.87	-2195.08
958.037	115.03
958.204	-1222.3
958.372	1055.05
958.539	63.83
958.706	-489.12
958.874	3211.56
959.041	561.48
959.208	-2086.54
959.376	-1420.95
959.543	983.37
959.71	-358.05
959.877	1175.88
960.044	-390.82
960.212	2556.21
960.379	3033.38
960.546	301.39
960.713	-2670.21
960.88	-511.65
961.047	-1.71
961.214	26544.06
961.381	2435.38
961.548	-1015.45
961.715	-310.95
961.882	-2289.29
962.049	-855.71
962.216	-890.53
962.383	-1427.09
962.55	-947.87
962.717	1642.81
962.883	766.28
963.05	2550.06
963.217	545.1
963.384	-1375.89
963.551	-450.21
963.717	-1388.18
963.884	-36.52
964.051	422.22
964.218	1372.48
964.384	5796.09
964.551	-1943.18
964.717	-2764.42
964.884	-589.47
965.051	-1494.68
965.217	-2225.8
965.384	-2748.03
965.55	1055.05
965.717	1759.55
965.883	-136.87
966.05	-1455.76
966.216	2185.52
966.383	917.83
966.549	-181.93
966.716	-921.24
966.882	-1793.68
967.048	-1240.73
967.215	-2348.68
967.381	-1183.38
967.547	1915.19
967.713	2076.98
967.88	565.58
968.046	-2393.73
968.212	-863.9
968.378	1012.04
968.545	-2418.31
968.711	915.78
968.877	-605.86
969.043	-93.87
969.209	-2070.16
969.375	1098.05
969.541	1990.97
969.707	2724.14
969.873	1044.81
970.039	-681.63
970.205	1691.96
970.371	4901.13
970.537	1530.17
970.703	235.86
970.869	-872.09
971.035	1882.42
971.201	139.6
971.367	-1713.81
971.532	-437.92
971.698	-544.42
971.864	1237.31
972.03	-1994.38
972.195	-1300.12
972.361	1950.01
972.527	-1285.78
972.693	3060.01
972.858	1601.85
973.024	-1838.73
973.19	-513.7
973.355	198.99
973.521	598.35
973.686	1349.95
973.852	-2608.77
974.017	4385.04
974.183	-2201.23
974.348	459.09
974.514	-2371.21
974.679	-202.41
974.845	-1339.03
975.01	-368.29
975.175	-2952.83
975.341	17342.54
975.506	-304.81
975.672	545.1
975.837	3854.62
976.002	-269.99
976.167	-814.75
976.333	4929.8
976.498	-882.33
976.663	-1724.05
976.828	827.72
976.993	-1083.03
977.159	319.82
977.324	426.32
977.489	3184.93
977.654	86.36
977.819	-1152.67
977.984	-554.66
978.149	2613.55
978.314	1403.2
978.479	-1095.32
978.644	-1879.69
978.809	-827.04
978.974	-1824.4
979.139	1927.48
979.304	72.02
979.469	-773.79
979.633	-718.5
979.798	-544.42
979.963	-1605.27
980.128	2916.65
980.293	-2033.29
980.457	-1678.99
980.622	-2369.16
980.787	-1908.37
980.951	-161.45
981.116	-444.07
981.281	-1777.3
981.445	-280.23
981.61	862.54
981.775	-1699.47
981.939	-2576
982.104	1980.73
982.268	1114.44
982.433	1311.04
982.597	-1781.39
982.762	2562.35
982.926	844.1
983.091	-698.02
983.255	-2588.29
983.419	-1795.73
983.584	1413.44
983.748	-42.67
983.912	-157.35
984.077	2017.59
984.241	2031.93
984.405	-1826.45
984.57	1941.82
984.734	-579.23
984.898	-304.81
985.062	-1285.78
985.226	-1275.54
985.39	2769.2
985.555	145.75
985.719	2060.6
985.883	356.69
986.047	-1482.39
986.211	723.27
986.375	12.63
986.539	-1328.79
986.703	-1341.08
986.867	-95.91
987.031	567.63
987.195	-2033.29
987.359	-1734.29
987.523	549.2
987.686	-2098.83
987.85	-1832.59
988.014	368.98
988.178	-1111.71
988.342	842.06
988.506	424.27
988.669	-366.25
988.833	196.95
988.997	649.55
989.16	-417.44
989.324	-192.17
989.488	2996.52
989.651	143.7
989.815	3297.57
989.979	-1044.12
990.142	86.36
990.306	-501.41
990.469	1556.8
990.633	1069.38
990.796	2091.32
990.96	-779.93
991.123	747.85
991.286	1694.01
991.45	831.82
991.613	-1625.75
991.777	-2170.51
991.94	-2162.31
992.103	547.15
992.267	2949.42
992.43	-841.37
992.593	381.26
992.756	184.66
992.92	575.82
993.083	567.63
993.246	-339.62
993.409	-2694.79
993.572	-2176.65
993.735	-597.67
993.899	229.71
994.062	-439.97
994.225	-911
994.388	147.8
994.551	2482.48
994.714	-372.39
994.877	-507.55
995.04	-1625.75
995.203	-1302.17
995.366	1048.9
995.528	-1437.33
995.691	960.84
995.854	-1597.07
996.017	-685.73
996.18	-2627.2
996.343	-581.28
996.505	1786.17
996.668	483.66
996.831	-497.32
996.994	-601.76
997.156	-278.18
997.319	-1277.59
997.482	1507.65
997.644	-1672.85
997.807	1104.2
997.97	-2068.11
998.132	-1310.36
998.295	1272.13
998.457	336.21
998.62	-1310.36
998.782	-1744.53
998.945	139.6
999.107	-147.11
999.27	-26.28
999.432	-888.48
999.594	602.44
999.757	2040.12
999.919	268.63
1000.081	-2209.42
1000.244	-222.89
1000.406	-112.3
1000.568	-54.95
1000.731	1956.15
1000.893	1630.52
1001.055	1478.97
1001.217	-691.87
1001.379	-2395.78
1001.542	-1375.89
1001.704	3207.46
1001.866	-810.65
1002.028	1055.05
1002.19	340.3
1002.352	-1203.86
1002.514	-1447.57
1002.676	5499.14
1002.838	1925.43
1003	-554.66
1003.162	-1277.59
1003.324	2304.31
1003.486	1268.03
1003.648	-1230.49
1003.809	-728.74
1003.971	848.2
1004.133	-159.4
1004.295	-222.89
1004.457	-407.2
1004.618	618.83
1004.78	16.73
1004.942	3696.92
1005.104	39.25
1005.265	-1519.25
1005.427	977.22
1005.589	-736.93
1005.75	244.05
1005.912	1810.75
1006.073	1921.34
1006.235	94.55
1006.396	-292.52
1006.558	-327.33
1006.72	-73.39
1006.881	395.6
1007.042	-1128.09
1007.204	-1836.69
1007.365	-1259.16
1007.527	991.56
1007.688	3023.14
1007.849	127.32
1008.011	-5.8
1008.172	289.1
1008.333	678.22
1008.495	-530.08
1008.656	-2125.45
1008.817	1055.05
1008.978	2507.06
1009.139	-693.92
1009.301	717.13
1009.462	-2551.43
1009.623	913.74
1009.784	-1482.39
1009.945	321.87
1010.106	858.44
1010.267	305.49
1010.428	-1355.41
1010.589	-2018.96
1010.75	31.06
1010.911	-1101.47
1011.072	-2371.21
1011.233	885.06
1011.394	-505.51
1011.555	143.7
1011.716	733.51
1011.877	-1248.92
1012.037	338.26
1012.198	-1259.16
1012.359	522.57
1012.52	-1441.43
1012.68	-450.21
1012.841	125.27
1013.002	225.62
1013.163	-749.22
1013.323	213.33
1013.484	-1820.3
1013.644	-1365.65
1013.805	710.99
1013.966	-601.76
1014.126	2752.81
1014.287	-722.59
1014.447	-368.29
1014.608	1474.88
1014.768	-1138.33
1014.929	1151.3
1015.089	-1314.45
1015.249	184.66
1015.41	4.44
1015.57	1118.53
1015.731	-2125.45
1015.891	-771.74
1016.051	639.31
1016.211	-538.27
1016.372	1540.41
1016.532	-886.43
1016.692	-319.14
1016.852	624.97
1017.013	-693.92
1017.173	-282.28
1017.333	-1083.03
1017.493	-812.7
1017.653	-1404.57
1017.813	-2143.88
1017.973	-335.53
1018.133	-1468.05
1018.293	-1875.6
1018.453	-370.34
1018.613	-1928.85
1018.773	2117.94
1018.933	-190.12
1019.093	1048.9
1019.253	-3.75
1019.413	1098.05
1019.573	-2150.03
1019.733	-466.6
1019.892	2163
1020.052	-583.33
1020.212	532.81
1020.372	264.53
1020.531	1585.47
1020.691	-292.52
1020.851	-1277.59
1021.01	207.19
1021.17	317.78
1021.33	-491.17
1021.489	-1683.09
1021.649	125.27
1021.808	-138.92
1021.968	344.4
1022.127	-2768.51
1022.287	1990.97
1022.446	-763.55
1022.606	624.97
1022.765	-1336.98
1022.925	2763.05
1023.084	-521.89
1023.244	1653.05
1023.403	-571.04
1023.562	-898.72
1023.722	-437.92
1023.881	-659.1
1024.04	-278.18
1024.199	534.86
1024.359	49.49
1024.518	-2039.44
1024.677	-790.17
1024.836	-833.18
1024.995	770.38
1025.154	-1105.56
1025.313	-136.87
1025.473	-1412.76
1025.632	-1265.3
1025.791	895.3
1025.95	-1355.41
1026.109	-855.71
1026.268	227.67
1026.427	1327.43
1026.586	1847.61
1026.744	94.55
1026.903	6357.24
1027.062	-347.81
1027.221	1208.64
1027.38	514.38
1027.539	1216.83
1027.698	5046.54
1027.856	-1390.23
1028.015	508.24
1028.174	375.12
1028.333	186.71
1028.491	4264.21
1028.65	1497.41
1028.808	3920.15
1028.967	950.6
1029.126	676.17
1029.284	-1896.08
1029.443	1061.19
1029.601	-849.57
1029.76	-1625.75
1029.918	-1257.11
1030.077	799.05
1030.235	2281.78
1030.394	-755.36
1030.552	1329.47
1030.711	2552.11
1030.869	-698.02
1031.027	-806.56
1031.186	-2512.52
1031.344	-1089.18
1031.502	-286.37
1031.661	1100.1
1031.819	2158.9
1031.977	1233.22
1032.135	-1730.19
1032.293	-872.09
1032.452	-1500.82
1032.61	3885.34
1032.768	-1638.03
1032.926	205.14
1033.084	3313.95
1033.242	-646.82
1033.4	-1668.75
1033.558	751.95
1033.716	-396.96
1033.874	-835.23
1034.032	-145.06
1034.19	-315.05
1034.348	2388.27
1034.506	-1885.84
1034.664	567.63
1034.822	-1691.28
1034.979	2480.43
1035.137	897.35
1035.295	-222.89
