Data from Quartz 10 sec exposure (900 SPF and 750LPF in Output, 700SpF Input)_USBC44471_14-42-11-855.txt Node
Date: Wed Jul 29 14:42:11 MDT 2020
User: Montana Instruments
Spectrometer: USBC4447
Scans to average: 1
Trigger mode: 4
Integration Time (sec): 1.000000E1
Electric dark correction enabled: true
Boxcar width: 0
XAxis mode: Wavelengths
Number of Pixels in Spectrum: 3648
>>>>>Begin Spectral Data<<<<<
344.991	-5337.52
345.205	-5337.52
345.419	-5337.52
345.633	-5417.39
345.847	-5366.19
346.061	-295.42
346.275	792.05
346.489	-1294.83
346.703	-59.9
346.917	-1780.2
347.131	1181.17
347.345	-831.99
347.559	-797.17
347.773	1502.7
347.986	-131.58
348.2	3018.19
348.414	-1303.02
348.628	-645.62
348.842	-1079.79
349.056	-1212.91
349.269	341.5
349.483	1265.13
349.697	1330.67
349.911	1435.11
350.125	-1081.84
350.338	396.79
350.552	763.38
350.766	-743.92
350.979	-1454.57
351.193	-578.04
351.407	5488.04
351.621	-225.79
351.834	-1360.36
352.048	2495.96
352.262	-295.42
352.475	3567.05
352.689	1132.01
352.902	1672.68
353.116	11.78
353.33	-1624.55
353.543	-1147.37
353.757	624.12
353.971	194.05
354.184	177.66
354.398	-631.29
354.611	718.33
354.825	3192.27
355.038	1107.44
355.252	-240.12
355.465	-461.3
355.679	-1958.37
355.892	712.18
356.106	1279.47
356.319	7615.88
356.533	-547.32
356.746	-334.33
356.96	-860.66
357.173	-1473
357.386	1299.95
357.6	-829.94
357.813	-1087.98
358.027	-1974.75
358.24	-862.71
358.453	2735.57
358.667	-1329.64
358.88	1023.47
359.094	-1100.27
359.307	282.11
359.52	-410.11
359.733	2129.38
359.947	-2433.5
360.16	1283.56
360.373	1744.36
360.587	-1169.9
360.8	-641.53
361.013	-406.01
361.226	-887.28
361.44	2594.26
361.653	1631.72
361.866	-768.5
362.079	-2028
362.292	255.48
362.506	3749.32
362.719	589.3
362.932	2954.71
363.145	40.45
363.358	-999.92
363.571	-1405.42
363.785	-244.22
363.998	1267.18
364.211	1820.13
364.424	-1393.13
364.637	992.75
364.85	-707.06
365.063	2088.42
365.276	222.72
365.489	-1487.34
365.702	-346.62
365.915	310.78
366.128	-215.55
366.341	1998.31
366.554	3417.55
366.767	-725.49
366.98	40.45
367.193	1093.1
367.406	-1462.76
367.619	4015.55
367.832	1965.54
368.045	196.09
368.258	456.19
368.471	976.37
368.684	-2191.84
368.896	-1794.53
369.109	69.12
369.322	-1309.16
369.535	-219.64
369.748	-1548.78
369.961	-723.44
370.173	-2908.63
370.386	-2568.66
370.599	2645.46
370.812	-338.43
371.025	-868.85
371.237	183.81
371.45	355.83
371.663	699.89
371.876	-643.57
372.088	4707.77
372.301	-840.18
372.514	-1698.28
372.726	521.72
372.939	-383.48
373.152	-299.52
373.364	964.08
373.577	3325.39
373.79	-565.75
374.002	-1169.9
374.215	-2949.59
374.428	-2060.77
374.64	1588.71
374.853	-1065.46
375.065	-700.92
375.278	3634.63
375.491	105.98
375.703	1363.44
375.916	-2064.86
376.128	-768.5
376.341	-1649.13
376.553	998.9
376.766	-1495.53
376.978	-1829.35
377.191	884.21
377.403	-1675.75
377.616	3083.73
377.828	4154.82
378.04	-1337.84
378.253	-655.86
378.465	441.85
378.678	1107.44
378.89	-1217.01
379.103	-983.54
379.315	421.37
379.527	-1831.4
379.74	-350.71
379.952	-215.55
380.164	-1591.78
380.377	2196.96
380.589	40.45
380.801	210.43
381.014	1625.58
381.226	1052.14
381.438	-135.68
381.65	-1436.14
381.863	71.17
382.075	-1133.04
382.287	-2431.45
382.499	-1006.06
382.712	-236.03
382.924	19.97
383.136	-977.39
383.348	-2855.38
383.56	-66.05
383.772	-1010.16
383.985	230.91
384.197	1422.83
384.409	-643.57
384.621	349.69
384.833	198.14
385.045	132.61
385.257	-1378.79
385.469	-563.7
385.681	-6.66
385.893	-76.29
386.105	-1169.9
386.318	-2558.42
386.53	-510.46
386.742	-3133.9
386.954	-2367.96
387.166	2866.64
387.378	58.88
387.589	65.02
387.801	-3051.99
388.013	-1522.15
388.225	-1223.15
388.437	-2111.97
388.649	-1819.11
388.861	2592.22
389.073	1103.34
389.285	-649.72
389.497	779.76
389.709	1461.74
389.92	-1370.6
390.132	-1012.21
390.344	-772.6
390.556	-705.01
390.768	253.44
390.98	-1180.14
391.191	2067.94
391.403	693.75
391.615	243.2
391.827	-1331.69
392.038	-918
392.25	-356.86
392.462	-2130.4
392.674	-2103.78
392.885	-1518.06
393.097	-2396.64
393.309	-860.66
393.52	992.75
393.732	-1737.19
393.944	677.37
394.155	517.62
394.367	-1419.75
394.579	579.06
394.79	-1083.89
395.002	202.24
395.213	-2693.59
395.425	-334.33
395.637	-1153.52
395.848	-2302.43
396.06	396.79
396.271	284.16
396.483	-1051.12
396.694	-297.47
396.906	-666.1
397.117	1316.33
397.329	1449.45
397.54	-993.78
397.752	-1772
397.963	-1116.65
398.175	210.43
398.386	1052.14
398.598	-809.46
398.809	-2300.38
399.02	620.02
399.232	841.2
399.443	-12.8
399.655	-1067.5
399.866	-1202.67
400.077	-590.33
400.289	1433.07
400.5	-53.76
400.711	902.64
400.923	-1536.49
401.134	-1104.37
401.345	-1966.56
401.556	3585.48
401.768	-1040.88
401.979	-764.4
402.19	747
402.401	-563.7
402.613	185.85
402.824	-803.32
403.035	-2615.77
403.246	-1729
403.457	259.58
403.669	179.71
403.88	-1491.43
404.091	-2310.62
404.302	-1427.95
404.513	-719.35
404.724	-911.86
404.935	-862.71
405.146	693.75
405.358	-1929.7
405.569	-1608.17
405.78	-2122.21
405.991	-915.95
406.202	50.69
406.413	-553.46
406.624	-1694.18
406.835	-309.76
407.046	2928.08
407.257	-176.64
407.468	1250.8
407.679	-274.94
407.89	1779.17
408.101	2162.14
408.312	-641.53
408.522	-2003.43
408.733	294.4
408.944	230.91
409.155	-702.97
409.366	982.51
409.577	-1948.13
409.788	-492.02
409.999	212.48
410.209	-834.04
410.42	69.12
410.631	-1831.4
410.842	-410.11
411.053	5057.97
411.264	1146.35
411.474	-1229.29
411.685	-35.33
411.896	-1401.32
412.107	-2302.43
412.317	-1061.36
412.528	2020.83
412.739	-2288.09
412.949	-1311.21
413.16	75.26
413.371	2192.86
413.581	1070.58
413.792	-645.62
414.003	3616.2
414.213	1631.72
414.424	-2111.97
414.635	-604.66
414.845	-1081.84
415.056	89.6
415.266	-1729
415.477	-2515.42
415.687	800.24
415.898	609.78
416.109	-1716.71
416.319	491
416.53	-2720.21
416.74	185.85
416.951	-1487.34
417.161	-76.29
417.372	120.32
417.582	544.25
417.792	1578.47
418.003	2192.86
418.213	-887.28
418.424	419.32
418.634	-1669.61
418.844	1152.49
419.055	1897.96
419.265	-1280.49
419.476	570.87
419.686	-1014.26
419.896	11.78
420.107	-1300.97
420.317	-938.48
420.527	46.59
420.738	-516.6
420.948	1070.58
421.158	1347.05
421.368	-653.81
421.579	-180.73
421.789	-1186.29
421.999	-3430.86
422.209	-455.16
422.419	-492.02
422.63	-236.03
422.84	-559.61
423.05	-1235.44
423.26	-1096.18
423.47	-197.12
423.681	-2081.25
423.891	904.69
424.101	1644.01
424.311	-823.8
424.521	-344.57
424.731	-772.6
424.941	-715.25
425.151	1756.65
425.361	-1769.96
425.571	-2687.45
425.781	4083.14
425.991	1019.38
426.201	1646.05
426.411	423.42
426.621	-1374.7
426.831	-1974.75
427.041	-16.9
427.251	-311.8
427.461	1345
427.671	1170.93
427.881	-801.27
428.091	-59.9
428.301	2346.46
428.511	-143.87
428.721	-3117.52
428.93	-461.3
429.14	-1313.26
429.35	241.15
429.56	-1141.23
429.77	-348.67
429.98	-1362.41
430.189	-1210.86
430.399	2825.68
430.609	1545.7
430.819	296.44
431.029	-1552.87
431.238	-1051.12
431.448	-827.89
431.658	-2630.1
431.867	-788.98
432.077	226.81
432.287	-1163.76
432.497	-1010.16
432.706	-104.96
432.916	-451.07
433.125	-2961.87
433.335	-1341.93
433.545	1322.48
433.754	3982.79
433.964	-1380.84
434.174	-932.34
434.383	2147.81
434.593	-1323.5
434.802	904.69
435.012	-1440.23
435.221	220.67
435.431	-446.97
435.64	-1053.17
435.85	-1165.81
436.059	114.17
436.269	853.49
436.478	-965.11
436.688	-2376.16
436.897	-827.89
437.107	-2238.94
437.316	28292.18
437.525	138.75
437.735	99.84
437.944	-96.77
438.154	2641.37
438.363	316.92
438.572	2966.99
438.782	185.85
438.991	-1010.16
439.2	-446.97
439.41	-1098.22
439.619	-1120.75
439.828	263.68
440.038	28.16
440.247	2016.74
440.456	-1589.74
440.665	466.42
440.875	937.46
441.084	378.36
441.293	-1753.57
441.502	-1282.54
441.711	-1200.62
441.92	292.35
442.13	-516.6
442.339	-1366.51
442.548	-686.58
442.757	1811.94
442.966	-3013.07
443.175	-1204.72
443.384	1428.97
443.593	1664.49
443.803	-2146.78
444.012	-293.37
444.221	-649.72
444.43	4799.93
444.639	493.05
444.848	2133.47
445.057	-1186.29
445.266	-1489.39
445.475	-2437.59
445.684	-1303.02
445.893	2115.04
446.102	323.07
446.311	-3201.49
446.52	138.75
446.728	3132.88
446.937	-2697.69
447.146	-3592.65
447.355	427.51
447.564	-340.47
447.773	1424.87
447.982	1502.7
448.191	701.94
448.399	-1444.33
448.608	-1049.07
448.817	-674.29
449.026	953.84
449.235	-1552.87
449.443	1005.04
449.652	-623.09
449.861	-995.82
450.07	294.4
450.278	1848.8
450.487	-3191.25
450.696	-113.15
450.904	-1376.75
451.113	-858.61
451.322	515.58
451.53	-786.93
451.739	3036.63
451.948	-1290.73
452.156	120.32
452.365	4384.19
452.574	763.38
452.782	110.08
452.991	-659.96
453.199	691.7
453.408	224.76
453.616	-1563.11
453.825	1160.69
454.033	1359.34
454.242	3435.98
454.45	3462.6
454.659	372.22
454.867	4081.09
455.076	-1102.32
455.284	-946.67
455.493	-1876.45
455.701	-1296.88
455.91	3022.29
456.118	-885.23
456.326	-2181.6
456.535	2514.39
456.743	1132.01
456.951	-2144.74
457.16	1168.88
457.368	671.22
457.576	-1759.72
457.785	2827.73
457.993	-141.82
458.201	-1341.93
458.41	691.7
458.618	-1040.88
458.826	-152.06
459.034	-2951.63
459.243	-1606.12
459.451	208.38
459.659	108.03
459.867	-596.47
460.075	-815.6
460.284	-201.21
460.492	-2343.39
460.7	-270.84
460.908	-584.18
461.116	-2646.49
461.324	-1362.41
461.532	-2533.85
461.741	-2044.38
461.949	-922.1
462.157	2176.48
462.365	13.82
462.573	-188.93
462.781	396.79
462.989	-862.71
463.197	-1698.28
463.405	-2312.67
463.613	-61.95
463.821	-2546.14
464.029	5.63
464.237	-1161.71
464.445	-838.13
464.653	1013.23
464.861	-371.19
465.069	1234.41
465.276	4812.21
465.484	-807.41
465.692	-815.6
465.9	-1059.31
466.108	-623.09
466.316	851.44
466.524	-874.99
466.731	-406.01
466.939	1910.24
467.147	-76.29
467.355	-178.69
467.563	1433.07
467.77	771.57
467.978	-2658.78
468.186	265.72
468.393	2141.66
468.601	-512.5
468.809	-2169.31
469.017	-682.49
469.224	-1927.65
469.432	1084.91
469.64	-1421.8
469.847	-1966.56
470.055	544.25
470.263	-1192.43
470.47	-1290.73
470.678	1572.33
470.885	-352.76
471.093	2663.9
471.3	849.4
471.508	-1128.94
471.716	-551.42
471.923	189.95
472.131	392.7
472.338	-1391.08
472.546	-932.34
472.753	2979.28
472.961	-1427.95
473.168	-117.25
473.375	-496.12
473.583	1021.42
473.79	-633.33
473.998	265.72
474.205	370.17
474.412	2037.22
474.62	-817.65
474.827	-1429.99
475.035	1398.25
475.242	-901.62
475.449	-1429.99
475.657	4179.39
475.864	3374.54
476.071	7.68
476.278	-948.72
476.486	-659.96
476.693	296.44
476.9	407.03
477.107	280.06
477.315	-1012.21
477.522	22.02
477.729	1375.72
477.936	-698.87
478.143	-1536.49
478.351	1449.45
478.558	-1530.34
478.765	-725.49
478.972	-428.54
479.179	511.48
479.386	703.99
479.593	1076.72
479.8	839.16
480.007	-1788.39
480.215	-301.56
480.422	1021.42
480.629	-2365.92
480.836	1144.3
481.043	3042.77
481.25	-750.07
481.457	-1542.63
481.664	-784.88
481.871	783.86
482.078	-1386.99
482.284	-1554.92
482.491	2069.98
482.698	1797.6
482.905	-1137.13
483.112	-2226.65
483.319	177.66
483.526	101.89
483.733	2293.21
483.94	-2777.56
484.146	-1649.13
484.353	17.92
484.56	-498.17
484.767	-3131.86
484.974	2237.92
485.18	1865.19
485.387	-485.88
485.594	-1192.43
485.801	1936.87
486.007	263.68
486.214	-858.61
486.421	-1948.13
486.627	-338.43
486.834	628.21
487.041	536.06
487.247	-1194.48
487.454	-1481.19
487.661	1009.14
487.867	693.75
488.074	-1804.77
488.281	1185.26
488.487	-25.09
488.694	-985.58
488.9	-481.78
489.107	-1155.57
489.313	-936.43
489.52	-559.61
489.726	-1599.98
489.933	2934.23
490.139	3065.3
490.346	-518.65
490.552	323.07
490.759	-379.39
490.965	-2.56
491.172	14929.18
491.378	-381.43
491.584	112.13
491.791	1816.04
491.997	-43.52
492.204	-498.17
492.41	3278.29
492.616	-1638.89
492.823	-1513.96
493.029	-1047.02
493.235	2407.9
493.442	-248.32
493.648	-735.73
493.854	-535.03
494.06	4881.85
494.267	851.44
494.473	-684.53
494.679	-1245.68
494.885	450.04
495.091	3405.26
495.298	767.48
495.504	-2515.42
495.71	-219.64
495.916	-1941.99
496.122	2657.75
496.328	650.74
496.535	611.83
496.741	-449.02
496.947	775.67
497.153	-334.33
497.359	486.9
497.565	476.66
497.771	1680.87
497.977	-137.73
498.183	-696.82
498.389	781.81
498.595	-1612.26
498.801	558.58
499.007	814.58
499.213	-387.58
499.419	-537.08
499.625	22.02
499.831	3255.76
500.037	-621.05
500.243	-1468.91
500.448	-655.86
500.654	1041.9
500.86	2002.4
501.066	-541.18
501.272	2479.58
501.478	-1952.23
501.684	-657.91
501.889	-1735.14
502.095	-1489.39
502.301	-315.9
502.507	617.97
502.712	-496.12
502.918	-1327.6
503.124	-1143.28
503.33	898.55
503.535	-860.66
503.741	95.74
503.947	-213.5
504.152	-219.64
504.358	-2183.65
504.564	-385.53
504.769	501.24
504.975	4484.54
505.181	-39.42
505.386	-1800.68
505.592	-657.91
505.797	636.41
506.003	-2722.26
506.208	2100.7
506.414	-608.76
506.619	-8.7
506.825	523.77
507.03	-2087.39
507.236	-1186.29
507.441	108.03
507.647	-831.99
507.852	271.87
508.058	1242.61
508.263	1115.63
508.469	-559.61
508.674	-2247.13
508.879	-680.44
509.085	-141.82
509.29	-1669.61
509.495	-1419.75
509.701	-1026.54
509.906	783.86
510.111	-707.06
510.317	1009.14
510.522	314.88
510.727	2147.81
510.933	-829.94
511.138	425.47
511.343	-805.36
511.548	671.22
511.754	-1491.43
511.959	2575.83
512.164	-92.67
512.369	3409.36
512.574	3591.63
512.779	-1552.87
512.985	-631.29
513.19	966.13
513.395	216.57
513.6	-979.44
513.805	-330.23
514.01	2080.22
514.215	-293.37
514.42	2876.88
514.625	-483.83
514.83	2653.66
515.035	-137.73
515.24	15.87
515.445	3024.34
515.65	1897.96
515.855	355.83
516.06	-285.18
516.265	566.78
516.47	1375.72
516.675	144.89
516.88	-2359.77
517.085	185.85
517.29	-496.12
517.495	427.51
517.7	1861.09
517.904	-205.31
518.109	652.79
518.314	-518.65
518.519	-152.06
518.724	632.31
518.928	568.82
519.133	-496.12
519.338	286.2
519.543	431.61
519.747	878.07
519.952	2956.75
520.157	6290.85
520.362	970.23
520.566	2854.36
520.771	-1759.72
520.976	1215.98
521.18	4044.23
521.385	-889.33
521.59	-1083.89
521.794	536.06
521.999	2254.3
522.203	-1139.18
522.408	-453.11
522.612	-940.53
522.817	765.43
523.022	2364.89
523.226	-127.49
523.431	-1059.31
523.635	284.16
523.84	2209.25
524.044	-795.12
524.249	1799.65
524.453	2969.04
524.657	140.8
524.862	6354.34
525.066	-825.84
525.271	-190.97
525.475	1242.61
525.679	13.82
525.884	-1909.22
526.088	1496.55
526.292	2557.4
526.497	284.16
526.701	-780.79
526.905	-338.43
527.11	112.13
527.314	-131.58
527.518	3661.26
527.722	-903.67
527.927	1355.24
528.131	-2030.05
528.335	5828.01
528.539	1824.23
528.744	2852.31
528.948	-1724.9
529.152	-1217.01
529.356	2577.88
529.56	730.61
529.764	237.05
529.968	7.68
530.173	7994.76
530.377	6509.98
530.581	-1718.76
530.785	1748.45
530.989	-416.25
531.193	464.38
531.397	-1274.35
531.601	206.33
531.805	1832.42
532.009	1656.29
532.213	73.21
532.417	724.47
532.621	2358.75
532.825	3429.84
533.029	173.57
533.233	814.58
533.436	650.74
533.64	157.18
533.844	1691.11
534.048	-537.08
534.252	1125.87
534.456	3610.06
534.66	2317.79
534.863	181.76
535.067	370.17
535.271	2463.19
535.475	-428.54
535.679	1342.96
535.882	3311.05
536.086	1947.11
536.29	2362.84
536.493	697.85
536.697	1580.52
536.901	1148.4
537.104	2291.17
537.308	1117.68
537.512	1498.6
537.715	4025.79
537.919	1838.56
538.123	1824.23
538.326	1482.22
538.53	2792.92
538.733	3593.67
538.937	2393.56
539.141	1938.91
539.344	3147.22
539.548	2137.57
539.751	4873.65
539.955	6190.5
540.158	7798.15
540.362	5293.49
540.565	3177.94
540.768	4828.6
540.972	11294.04
541.175	9401.71
541.379	7249.3
541.582	6577.56
541.785	8078.72
541.989	9829.74
542.192	5459.37
542.396	6583.71
542.599	8971.64
542.802	9192.82
543.005	7851.4
543.209	6882.71
543.412	8557.95
543.615	8473.98
543.819	8275.33
544.022	6874.52
544.225	8248.71
544.428	8146.31
544.631	10765.66
544.835	7404.94
545.038	6593.95
545.241	6722.97
545.444	10005.86
545.647	8164.74
545.85	7173.52
546.054	5852.58
546.257	4097.47
546.46	6903.19
546.663	6307.23
546.866	6851.99
547.069	7286.16
547.272	5635.5
547.475	6155.68
547.678	5461.42
547.881	4419
548.084	4611.51
548.287	4986.29
548.49	2624.98
548.693	4273.6
548.896	1748.45
549.099	4486.59
549.302	2760.15
549.505	2166.24
549.707	1875.43
549.91	4062.66
550.113	1877.48
550.316	1658.34
550.519	4453.82
550.722	4345.28
550.924	2039.26
551.127	3067.35
551.33	2112.99
551.533	1572.33
551.736	1125.87
551.938	1121.77
552.141	2723.29
552.344	648.69
552.546	3145.17
552.749	1539.56
552.952	1793.51
553.154	1656.29
553.357	1789.41
553.56	1611.24
553.762	7046.55
553.965	5709.22
554.168	1785.32
554.37	3995.08
554.573	2682.33
554.775	4099.52
554.978	3239.37
555.18	425.47
555.383	1162.73
555.585	5277.1
555.788	2569.69
555.99	1400.3
556.193	1990.11
556.395	3214.8
556.598	998.9
556.8	1787.36
557.003	2084.32
557.205	5821.86
557.407	1342.96
557.61	2014.69
557.812	2262.49
558.015	4543.93
558.217	1633.77
558.419	2119.14
558.622	3704.26
558.824	2313.69
559.026	845.3
559.228	1629.67
559.431	3438.03
559.633	3259.85
559.835	1615.34
560.037	3583.43
560.24	4607.42
560.442	4111.81
560.644	1426.92
560.846	3519.95
561.048	3560.91
561.25	4533.69
561.453	3018.19
561.655	2069.98
561.857	2401.76
562.059	1994.21
562.261	4795.83
562.463	2850.26
562.665	2696.66
562.867	3651.02
563.069	3546.57
563.271	4877.75
563.473	3565
563.675	3206.61
563.877	3118.54
564.079	2102.75
564.281	5469.61
564.483	3767.75
564.685	3036.63
564.887	2344.41
565.089	4517.31
565.291	4666.81
565.493	1732.07
565.694	5424.56
565.896	1914.34
566.098	4021.7
566.3	5234.1
566.502	2825.68
566.704	5662.12
566.905	527.86
567.107	1295.85
567.309	1377.77
567.511	4222.4
567.712	1381.87
567.914	2485.72
568.116	538.1
568.317	4720.06
568.519	3134.93
568.721	222.72
568.922	103.93
569.124	2717.14
569.326	5111.22
569.527	2469.34
569.729	2350.56
569.93	6901.14
570.132	2039.26
570.334	4310.46
570.535	767.48
570.737	1902.05
570.938	6403.49
571.14	2135.52
571.341	3669.45
571.543	7028.12
571.744	2586.07
571.946	4341.18
572.147	1529.32
572.348	5313.97
572.55	4294.08
572.751	4957.62
572.953	2258.4
573.154	4189.63
573.355	6718.87
573.557	9252.21
573.758	3624.39
573.959	3333.58
574.161	5156.27
574.362	5375.41
574.563	7566.73
574.765	5903.78
574.966	6145.44
575.167	2422.24
575.368	5623.21
575.569	3829.19
575.771	6098.34
575.972	3118.54
576.173	4111.81
576.374	5623.21
576.575	4986.29
576.776	1572.33
576.978	2448.86
577.179	3108.3
577.38	4259.26
577.581	2799.06
577.782	3552.71
577.983	5348.78
578.184	5854.63
578.385	3419.6
578.586	4169.15
578.787	2553.31
578.988	4142.53
579.189	1592.81
579.39	2643.42
579.591	3810.76
579.792	2725.33
579.993	4787.64
580.194	5041.59
580.395	6190.5
580.596	4052.42
580.796	5025.2
580.997	2772.44
581.198	3644.87
581.399	5709.22
581.6	6376.86
581.801	2801.11
582.001	6792.6
582.202	2332.12
582.403	1410.54
582.604	7804.3
582.804	3739.08
583.005	4101.57
583.206	716.28
583.407	5533.1
583.607	3200.46
583.808	2891.22
584.009	5004.72
584.209	4640.19
584.41	1500.65
584.61	3413.45
584.811	3130.83
585.012	2581.98
585.212	1797.6
585.413	3229.13
585.613	3352.01
585.814	2024.93
586.014	5088.69
586.215	2389.47
586.415	3419.6
586.616	2008.55
586.816	2672.09
587.017	4890.04
587.217	1785.32
587.418	6163.87
587.618	2641.37
587.819	2565.59
588.019	957.94
588.219	531.96
588.42	2883.03
588.62	1046
588.82	777.72
589.021	1361.39
589.221	3374.54
589.421	1461.74
589.622	3970.5
589.822	1164.78
590.022	5467.56
590.222	3401.16
590.423	1822.18
590.623	976.37
590.823	2897.36
591.023	2618.84
591.223	755.19
591.423	5834.15
591.624	2600.41
591.824	2272.73
592.024	1089.01
592.224	2153.95
592.424	5533.1
592.624	2434.52
592.824	2919.89
593.024	1885.67
593.224	4896.18
593.424	4689.34
593.624	2426.33
593.824	2366.94
594.024	2962.9
594.224	906.74
594.424	2516.44
594.624	499.19
594.824	1644.01
595.024	1203.69
595.224	2510.3
595.424	792.05
595.624	685.56
595.824	1189.36
596.023	4076.99
596.223	3913.16
596.423	1404.39
596.623	2807.25
596.823	-311.8
597.023	-791.03
597.222	6542.75
597.422	804.34
597.622	-166.4
597.822	845.3
598.021	2166.24
598.221	794.1
598.421	-725.49
598.62	1463.79
598.82	603.64
599.02	4808.12
599.219	4597.18
599.419	2405.85
599.618	423.42
599.818	2373.08
600.018	-713.21
600.217	908.79
600.417	4199.87
600.616	1340.91
600.816	1818.08
601.015	1934.82
601.215	781.81
601.414	593.4
601.614	771.57
601.813	-489.98
602.013	1965.54
602.212	1365.48
602.412	163.33
602.611	2735.57
602.81	1920.48
603.01	3192.27
603.209	1803.75
603.408	-1159.66
603.608	2592.22
603.807	1033.71
604.006	6157.73
604.206	-27.14
604.405	1461.74
604.604	1658.34
604.803	1400.3
605.003	345.59
605.202	38.4
605.401	873.97
605.6	2313.69
605.8	376.31
605.999	423.42
606.198	1707.49
606.397	2274.78
606.596	847.35
606.795	2756.05
606.994	3542.47
607.193	677.37
607.393	3851.72
607.592	3890.63
607.791	1500.65
607.99	4081.09
608.189	3843.53
608.388	4791.73
608.587	4113.86
608.786	2291.17
608.985	550.39
609.184	2166.24
609.382	3325.39
609.581	2917.84
609.78	4861.37
609.979	4367.81
610.178	2928.08
610.377	2622.94
610.576	577.02
610.775	3216.85
610.973	3149.26
611.172	3962.31
611.371	2889.17
611.57	2323.93
611.769	4877.75
611.967	1615.34
612.166	4756.92
612.365	2643.42
612.564	2909.65
612.762	3452.36
612.961	3327.44
613.16	2368.99
613.358	3122.64
613.557	-119.29
613.756	3075.54
613.954	4382.14
614.153	1318.38
614.351	1480.17
614.55	384.51
614.749	3782.09
614.947	1916.39
615.146	785.91
615.344	1934.82
615.543	89.6
615.741	2309.6
615.94	3055.06
616.138	779.76
616.337	3034.58
616.535	1054.19
616.733	46.59
616.932	1418.73
617.13	4003.27
617.329	5006.77
617.527	-918
617.725	-1569.26
617.924	-1012.21
618.122	341.5
618.32	-807.41
618.519	-1444.33
618.717	2450.91
618.915	2252.25
619.114	1082.86
619.312	-6.66
619.51	413.18
619.708	2168.29
619.906	-573.94
620.105	-428.54
620.303	-403.96
620.501	3814.85
620.699	-1632.74
620.897	904.69
621.095	1949.15
621.293	-1139.18
621.492	2026.98
621.69	-8.7
621.888	937.46
622.086	3413.45
622.284	1250.8
622.482	439.8
622.68	644.6
622.878	232.96
623.076	89.6
623.274	163.33
623.472	433.66
623.67	1406.44
623.868	-2447.83
624.065	865.78
624.263	333.31
624.461	943.6
624.659	-631.29
624.857	3591.63
625.055	2624.98
625.253	-440.83
625.45	-92.67
625.648	161.28
625.846	181.76
626.044	142.85
626.242	542.2
626.439	2270.69
626.637	771.57
626.835	-78.33
627.032	2018.79
627.23	-1581.54
627.428	3683.78
627.626	1322.48
627.823	482.81
628.021	2790.87
628.218	2104.8
628.416	1365.48
628.614	-1214.96
628.811	-1702.37
629.009	-682.49
629.206	-260.6
629.404	-1032.69
629.601	-51.71
629.799	-1888.74
629.996	3433.93
630.194	1265.13
630.391	1123.82
630.589	-492.02
630.786	2194.91
630.984	411.13
631.181	-2066.91
631.378	-688.63
631.576	1940.96
631.773	-2073.06
631.97	-1507.82
632.168	-1671.65
632.365	19.97
632.562	396.79
632.76	-971.25
632.957	296.44
633.154	97.79
633.352	638.45
633.549	-690.68
633.746	2242.01
633.943	841.2
634.14	-664.05
634.338	2412
634.535	-516.6
634.732	-371.19
634.929	2848.21
635.126	740.85
635.323	-35.33
635.52	2424.28
635.717	685.56
635.915	-270.84
636.112	-92.67
636.309	-1724.9
636.506	-668.15
636.703	-2431.45
636.9	-414.2
637.097	5410.22
637.294	323.07
637.491	-1057.26
637.688	2301.4
637.884	-1087.98
638.081	-535.03
638.278	-10.75
638.475	-363
638.672	-535.03
638.869	-809.46
639.066	5997.99
639.263	742.9
639.459	726.52
639.656	-2380.25
639.853	-1653.22
640.05	5109.17
640.246	2090.46
640.443	-219.64
640.64	-2763.22
640.837	468.47
641.033	-1841.64
641.23	-104.96
641.427	-289.28
641.623	503.29
641.82	-725.49
642.017	-1147.37
642.213	-420.35
642.41	-590.33
642.606	1201.65
642.803	1256.94
643	359.93
643.196	-1477.1
643.393	2205.15
643.589	443.9
643.786	-1182.19
643.982	4216.26
644.179	1478.12
644.375	-952.82
644.571	-414.2
644.768	-1468.91
644.964	-307.71
645.161	-436.73
645.357	2782.68
645.553	439.8
645.75	2139.62
645.946	146.94
646.143	-31.23
646.339	421.37
646.535	402.94
646.731	1332.72
646.928	-154.11
647.124	-1735.14
647.32	2375.13
647.516	2055.65
647.713	-1358.32
647.909	-162.3
648.105	-459.26
648.301	-2798.04
648.497	384.51
648.693	-651.77
648.89	-498.17
649.086	-141.82
649.282	-1137.13
649.478	-580.09
649.674	120.32
649.87	2164.19
650.066	1248.75
650.262	-1212.91
650.458	1738.21
650.654	-1071.6
650.85	189.95
651.046	-514.55
651.242	-160.25
651.438	187.9
651.634	-1827.3
651.83	-827.89
652.026	390.65
652.222	-215.55
652.417	-424.44
652.613	1332.72
652.809	-1540.58
653.005	-903.67
653.201	2385.37
653.397	-1157.61
653.592	-223.74
653.788	-1208.81
653.984	1705.45
654.18	4822.45
654.375	-891.38
654.571	-92.67
654.767	-127.49
654.962	-1071.6
655.158	-2447.83
655.354	-526.84
655.549	1267.18
655.745	923.12
655.941	3601.87
656.136	-967.15
656.332	-1491.43
656.527	-215.55
656.723	1496.55
656.918	-1845.73
657.114	-690.68
657.309	-315.9
657.505	892.4
657.7	1424.87
657.896	-1284.59
658.091	-1262.06
658.287	-766.45
658.482	-2279.9
658.678	-1026.54
658.873	235
659.068	3593.67
659.264	-498.17
659.459	31009.83
659.654	697.85
659.85	2489.82
660.045	-1571.3
660.24	1877.48
660.436	5496.24
660.631	-268.8
660.826	2076.13
661.021	312.83
661.217	2350.56
661.412	-821.75
661.607	-2324.96
661.802	-604.66
661.997	-537.08
662.192	525.82
662.388	-2724.31
662.583	-610.81
662.778	351.74
662.973	-1892.84
663.168	-2583
663.363	-1081.84
663.558	4117.95
663.753	1256.94
663.948	-1997.28
664.143	-1731.05
664.338	194.05
664.533	1046
664.728	-664.05
664.923	-1110.51
665.118	50.69
665.313	-909.81
665.508	1304.04
665.703	1334.76
665.897	1066.48
666.092	312.83
666.287	382.46
666.482	-557.56
666.677	1848.8
666.872	1660.39
667.066	-1001.97
667.261	-1235.44
667.456	85.5
667.651	1494.51
667.845	1916.39
668.04	624.12
668.235	-1524.2
668.429	1160.69
668.624	202.24
668.819	-731.64
669.013	-1673.7
669.208	779.76
669.402	-1528.3
669.597	-78.33
669.792	-764.4
669.986	2921.94
670.181	-2208.22
670.375	382.46
670.57	-1751.53
670.764	-1040.88
670.959	-414.2
671.153	-125.44
671.348	-379.39
671.542	2594.26
671.737	-2105.82
671.931	-2621.91
672.125	454.14
672.32	1209.84
672.514	1308.14
672.709	-1685.99
672.903	9.73
673.097	-662.01
673.291	-1204.72
673.486	1590.76
673.68	142.85
673.874	-950.77
674.069	-1165.81
674.263	724.47
674.457	1545.7
674.651	687.61
674.845	-680.44
675.04	3720.65
675.234	-1167.85
675.428	-201.21
675.622	-1348.08
675.816	-1729
676.01	-692.73
676.204	-92.67
676.398	-72.19
676.592	-811.51
676.787	-854.51
676.981	105.98
677.175	5.63
677.369	-3312.08
677.563	-76.29
677.757	-176.64
677.95	-1280.49
678.144	-2791.89
678.338	-1022.45
678.532	802.29
678.726	-2488.79
678.92	3284.43
679.114	-0.51
679.308	112.13
679.502	-3791.3
679.695	-2097.63
679.889	-528.89
680.083	-2382.3
680.277	-2404.83
680.471	-383.48
680.664	-1524.2
680.858	482.81
681.052	-168.45
681.245	-1296.88
681.439	701.94
681.633	-920.05
681.826	-270.84
682.02	-995.82
682.214	841.2
682.407	-1327.6
682.601	-788.98
682.795	-373.24
682.988	-483.83
683.182	-1155.57
683.375	-590.33
683.569	-860.66
683.762	755.19
683.956	2119.14
684.149	1762.79
684.343	1961.44
684.536	-1380.84
684.73	218.62
684.923	-1880.55
685.116	-1919.46
685.31	2399.71
685.503	921.07
685.696	-262.65
685.89	1007.09
686.083	-1645.03
686.276	-1065.46
686.47	151.04
686.663	-492.02
686.856	-285.18
687.05	1326.57
687.243	-543.22
687.436	1312.24
687.629	1807.84
687.822	546.3
688.016	-834.04
688.209	-1141.23
688.402	468.47
688.595	-80.38
688.788	-2167.26
688.981	-1743.33
689.174	2874.84
689.367	95.74
689.561	-809.46
689.754	-2527.71
689.947	-641.53
690.14	-72.19
690.333	-3334.61
690.526	-715.25
690.719	1818.08
690.912	1885.67
691.104	220.67
691.297	-166.4
691.49	165.37
691.683	-1036.78
691.876	-2929.11
692.069	2663.9
692.262	-66.05
692.455	458.23
692.647	-444.92
692.84	-1653.22
693.033	738.8
693.226	568.82
693.419	-1409.51
693.611	-705.01
693.804	181.76
693.997	517.62
694.189	-252.41
694.382	-1423.85
694.575	3073.49
694.767	-190.97
694.96	-1362.41
695.153	-244.22
695.345	357.88
695.538	1762.79
695.731	411.13
695.923	-631.29
696.116	222.72
696.308	1584.62
696.501	144.89
696.693	2321.88
696.886	-920.05
697.078	-1991.14
697.271	564.73
697.463	867.83
697.655	-135.68
697.848	269.82
698.04	-1071.6
698.233	-2335.2
698.425	-715.25
698.617	1410.54
698.81	-1317.36
699.002	-1028.59
699.194	1861.09
699.387	884.21
699.579	-1159.66
699.771	-2013.67
699.963	-2722.26
700.156	-1749.48
700.348	1228.27
700.54	38.4
700.732	-977.39
700.924	-649.72
701.117	-754.16
701.309	-1116.65
701.501	-2124.26
701.693	4345.28
701.885	-997.87
702.077	1148.4
702.269	501.24
702.461	1963.49
702.653	-74.24
702.845	-575.99
703.037	482.81
703.229	1859.04
703.421	-1030.64
703.613	-1325.55
703.805	3497.42
703.997	466.42
704.189	1332.72
704.381	-786.93
704.573	3757.51
704.765	-686.58
704.957	1625.58
705.148	-76.29
705.34	-958.96
705.532	-37.38
705.724	-1186.29
705.916	-2007.52
706.107	1656.29
706.299	361.98
706.491	2010.59
706.682	1365.48
706.874	-731.64
707.066	-219.64
707.258	-1491.43
707.449	-410.11
707.641	5793.19
707.832	42.5
708.024	-909.81
708.216	-305.66
708.407	824.82
708.599	-549.37
708.79	2135.52
708.982	-1614.31
709.173	-336.38
709.365	-1094.13
709.556	-213.5
709.748	-301.56
709.939	151.04
710.131	574.97
710.322	-2230.75
710.514	2678.23
710.705	-784.88
710.896	476.66
711.088	501.24
711.279	681.46
711.47	1852.9
711.662	1275.37
711.853	-1446.38
712.044	-2499.03
712.236	165.37
712.427	-51.71
712.618	-2415.07
712.809	-1161.71
713	-461.3
713.192	1517.03
713.383	-784.88
713.574	105.98
713.765	50.69
713.956	-795.12
714.147	2014.69
714.338	-1710.57
714.53	1756.65
714.721	2721.24
714.912	-1225.2
715.103	-2284
715.294	660.98
715.485	1514.98
715.676	-2277.85
715.867	-2765.27
716.058	-627.19
716.249	1545.7
716.44	-426.49
716.63	-1618.41
716.821	-236.03
717.012	1359.34
717.203	-1282.54
717.394	-877.04
717.585	-2413.02
717.776	-657.91
717.966	-1104.37
718.157	-1442.28
718.348	523.77
718.539	71.17
718.73	1148.4
718.92	2287.07
719.111	-979.44
719.302	314.88
719.492	-1120.75
719.683	841.2
719.874	-1118.7
720.064	4068.8
720.255	-2298.33
720.446	-231.93
720.636	1594.86
720.827	1428.97
721.017	544.25
721.208	-627.19
721.398	-924.15
721.589	1033.71
721.779	314.88
721.97	-3469.77
722.16	-1446.38
722.351	-2296.28
722.541	-1014.26
722.732	1240.56
722.922	984.56
723.112	1897.96
723.303	-1808.87
723.493	-1894.88
723.683	1277.42
723.874	2164.19
724.064	484.86
724.254	2170.33
724.445	-1174
724.635	916.98
724.825	-2900.44
725.015	-877.04
725.206	-662.01
725.396	1342.96
725.586	-1315.31
725.776	902.64
725.966	3704.26
726.157	1209.84
726.347	2098.66
726.537	-229.88
726.727	2067.94
726.917	-1380.84
727.107	-1047.02
727.297	-2963.92
727.487	2110.94
727.677	-1065.46
727.867	136.7
728.057	-174.59
728.247	855.54
728.437	779.76
728.627	-1024.5
728.817	-825.84
729.007	413.18
729.197	828.92
729.387	-608.76
729.576	-301.56
729.766	1727.97
729.956	-586.23
730.146	-907.76
730.336	-2021.86
730.525	-344.57
730.715	-1153.52
730.905	-117.25
731.095	-688.63
731.284	790
731.474	1691.11
731.664	-842.23
731.853	-2658.78
732.043	-1386.99
732.233	-1888.74
732.422	1302
732.612	-1497.58
732.802	513.53
732.991	148.99
733.181	-2908.63
733.37	-1534.44
733.56	-766.45
733.749	847.35
733.939	-2185.69
734.128	935.41
734.318	2469.34
734.507	-752.12
734.697	-2593.24
734.886	1476.07
735.076	-1724.9
735.265	1732.07
735.454	427.51
735.644	-1788.39
735.833	-1274.35
736.022	-121.34
736.212	-922.1
736.401	-682.49
736.59	1187.31
736.779	-711.16
736.969	-2150.88
737.158	83.45
737.347	-1536.49
737.536	-297.47
737.726	-1534.44
737.915	1283.56
738.104	689.65
738.293	-793.08
738.482	42.5
738.671	-1307.12
738.86	-2445.79
739.049	994.8
739.238	-1427.95
739.427	-657.91
739.616	-1950.18
739.806	-1817.06
739.995	-3078.61
740.183	-2040.29
740.372	-18.94
740.561	-598.52
740.75	-3668.42
740.939	103.93
741.128	298.49
741.317	1148.4
741.506	-948.72
741.695	314.88
741.884	871.92
742.072	1682.92
742.261	-184.83
742.45	-377.34
742.639	695.8
742.828	296.44
743.016	-840.18
743.205	-1733.09
743.394	-1577.45
743.582	1388.01
743.771	-162.3
743.96	652.79
744.148	-100.86
744.337	-113.15
744.526	359.93
744.714	-1128.94
744.903	3886.53
745.091	-205.31
745.28	1740.26
745.468	740.85
745.657	329.21
745.845	290.3
746.034	-1124.85
746.222	-334.33
746.411	-2.56
746.599	493.05
746.788	171.52
746.976	-1335.79
747.165	-723.44
747.353	-125.44
747.541	4083.14
747.73	-2636.25
747.918	1222.13
748.106	681.46
748.295	1324.52
748.483	577.02
748.671	-137.73
748.859	-240.12
749.048	1498.6
749.236	-459.26
749.424	-981.49
749.612	1613.29
749.8	-453.11
749.989	-510.46
750.177	177.66
750.365	828.92
750.553	593.4
750.741	-2251.23
750.929	3687.88
751.117	-647.67
751.305	206.33
751.493	-690.68
751.681	-1962.47
751.869	-432.63
752.057	871.92
752.245	-862.71
752.433	1398.25
752.621	17.92
752.809	1412.59
752.997	1027.57
753.185	689.65
753.373	-141.82
753.56	-387.58
753.748	939.51
753.936	-190.97
754.124	658.93
754.312	-823.8
754.499	2420.19
754.687	896.5
754.875	1598.95
755.063	-592.37
755.25	1762.79
755.438	2235.87
755.626	1451.5
755.813	-834.04
756.001	1527.27
756.189	-791.03
756.376	-381.43
756.564	157.18
756.751	1318.38
756.939	-639.48
757.127	2661.85
757.314	132.61
757.502	-1137.13
757.689	2272.73
757.877	1349.1
758.064	1525.22
758.251	-657.91
758.439	1557.99
758.626	2833.88
758.814	-578.04
759.001	2084.32
759.188	2024.93
759.376	-1776.1
759.563	1365.48
759.75	1885.67
759.938	-489.98
760.125	-250.36
760.312	151.04
760.5	-18.94
760.687	1158.64
760.874	-776.69
761.061	1191.41
761.248	-2398.68
761.436	3900.87
761.623	-150.01
761.81	628.21
761.997	1412.59
762.184	-393.72
762.371	-588.28
762.558	9.73
762.745	1975.78
762.932	331.26
763.119	835.06
763.306	407.03
763.493	525.82
763.68	751.09
763.867	1938.91
764.054	-1159.66
764.241	-461.3
764.428	1947.11
764.615	112.13
764.802	9.73
764.989	-907.76
765.176	411.13
765.362	1435.11
765.549	-590.33
765.736	8486.27
765.923	1881.57
766.11	2006.5
766.296	192
766.483	-2175.45
766.67	394.75
766.857	1547.75
767.043	-664.05
767.23	857.59
767.417	2176.48
767.603	1054.19
767.79	-227.84
767.976	2766.29
768.163	2254.3
768.35	1181.17
768.536	-86.53
768.723	-12.8
768.909	1936.87
769.096	2727.38
769.282	189.95
769.469	-406.01
769.655	3028.43
769.842	1101.3
770.028	-1362.41
770.214	523.77
770.401	329.21
770.587	-422.39
770.774	-2689.49
770.96	-2888.15
771.146	572.92
771.333	947.7
771.519	-504.31
771.705	523.77
771.891	-965.11
772.078	4898.23
772.264	1312.24
772.45	-330.23
772.636	271.87
772.822	-367.1
773.009	3499.47
773.195	947.7
773.381	919.03
773.567	1455.59
773.753	-633.33
773.939	-1739.24
774.125	-1835.49
774.311	34.3
774.497	-1573.35
774.683	-721.4
774.869	1711.59
775.055	3222.99
775.241	-1071.6
775.427	564.73
775.613	-1034.74
775.799	2407.9
775.985	-1217.01
776.171	30.21
776.357	304.64
776.543	13.82
776.729	-770.55
776.914	46.59
777.1	1328.62
777.286	3794.37
777.472	-524.79
777.657	-756.21
777.843	2684.38
778.029	2694.61
778.215	560.63
778.4	-301.56
778.586	2979.28
778.772	1400.3
778.957	855.54
779.143	-1360.36
779.329	-299.52
779.514	-1321.45
779.7	-80.38
779.885	-2232.8
780.071	382.46
780.256	368.12
780.442	224.76
780.627	-2173.41
780.813	941.55
780.998	1787.36
781.184	851.44
781.369	-1419.75
781.555	837.11
781.74	-295.42
781.925	1920.48
782.111	-864.75
782.296	-276.99
782.481	312.83
782.667	-344.57
782.852	1144.3
783.037	-555.51
783.223	-494.07
783.408	-373.24
783.593	888.31
783.778	-1083.89
783.963	343.55
784.149	1009.14
784.334	-678.39
784.519	-117.25
784.704	-1579.5
784.889	79.36
785.074	-1323.5
785.259	-532.98
785.444	2467.29
785.629	-1602.02
785.814	-2206.17
785.999	-727.54
786.184	2987.47
786.369	-1130.99
786.554	-2427.35
786.739	1152.49
786.924	462.33
787.109	22.02
787.294	1414.63
787.479	1205.74
787.664	-61.95
787.849	1226.22
788.034	742.9
788.218	140.8
788.403	144.89
788.588	1279.47
788.773	595.45
788.957	-901.62
789.142	1646.05
789.327	230.91
789.512	-754.16
789.696	3061.2
789.881	3808.71
790.066	-332.28
790.25	2858.45
790.435	-4.61
790.619	1877.48
790.804	833.01
790.989	265.72
791.173	3192.27
791.358	1058.29
791.542	-707.06
791.727	-29.18
791.911	-436.73
792.096	-987.63
792.28	-694.77
792.465	-147.97
792.649	-799.22
792.833	779.76
793.018	-535.03
793.202	849.4
793.386	2756.05
793.571	1617.38
793.755	177.66
793.939	-600.57
794.124	-258.56
794.308	296.44
794.492	-492.02
794.676	-1040.88
794.861	-104.96
795.045	1222.13
795.229	-2005.47
795.413	1019.38
795.597	-520.7
795.781	200.19
795.966	2764.25
796.15	235
796.334	4144.58
796.518	2536.92
796.702	-780.79
796.886	753.14
797.07	2448.86
797.254	1345
797.438	-440.83
797.622	-553.46
797.806	310.78
797.99	1408.49
798.174	329.21
798.358	2270.69
798.541	2211.29
798.725	2977.23
798.909	161.28
799.093	1195.5
799.277	437.75
799.461	1912.29
799.644	-2761.17
799.828	321.02
800.012	2545.11
800.196	290.3
800.379	259.58
800.563	-1368.56
800.747	2059.74
800.93	-29.18
801.114	-322.04
801.298	-743.92
801.481	2434.52
801.665	2409.95
801.848	-1620.46
802.032	-131.58
802.216	3786.18
802.399	32.26
802.583	-1436.14
802.766	-1845.73
802.95	792.05
803.133	2090.46
803.317	-1225.2
803.5	-1595.88
803.683	286.2
803.867	-1436.14
804.05	1369.58
804.233	2399.71
804.417	3098.06
804.6	-170.49
804.783	542.2
804.967	2442.71
805.15	978.42
805.333	583.16
805.517	1154.54
805.7	-1104.37
805.883	-141.82
806.066	1883.62
806.249	2170.33
806.432	-1477.1
806.616	515.58
806.799	-1194.48
806.982	-494.07
807.165	962.03
807.348	474.62
807.531	-909.81
807.714	-442.87
807.897	744.95
808.08	1046
808.263	1809.89
808.446	1494.51
808.629	470.52
808.812	-393.72
808.995	239.1
809.178	2227.68
809.361	1918.43
809.544	1773.03
809.726	3071.44
809.909	1924.58
810.092	1349.1
810.275	1770.98
810.458	3945.92
810.64	1781.22
810.823	1453.55
811.006	722.42
811.189	3028.43
811.371	-535.03
811.554	235
811.737	1789.41
811.919	2024.93
812.102	-520.7
812.285	-1415.66
812.467	1261.04
812.65	237.05
812.832	-827.89
813.015	2203.1
813.197	1902.05
813.38	1922.53
813.562	2751.96
813.745	-1278.44
813.927	-1651.17
814.11	1779.17
814.292	-14.85
814.475	-1120.75
814.657	-162.3
814.839	1312.24
815.022	-1108.46
815.204	3421.64
815.386	2524.63
815.569	2051.55
815.751	-2107.87
815.933	2137.57
816.116	1750.5
816.298	1697.25
816.48	-90.62
816.662	-580.09
816.844	527.86
817.027	445.95
817.209	-709.11
817.391	-1358.32
817.573	69.12
817.755	65.02
817.937	456.19
818.119	-549.37
818.301	-621.05
818.483	77.31
818.665	-578.04
818.847	1193.45
819.029	572.92
819.211	-1368.56
819.393	228.86
819.575	2946.52
819.757	2364.89
819.939	773.62
820.121	-4.61
820.303	523.77
820.485	3268.05
820.666	2860.5
820.848	2942.42
821.03	384.51
821.212	2008.55
821.394	-1599.98
821.575	953.84
821.757	2612.7
821.939	816.63
822.121	1039.86
822.302	3376.59
822.484	1449.45
822.666	-2165.21
822.847	-395.77
823.029	-2730.45
823.21	1437.16
823.392	-1833.44
823.573	-139.77
823.755	-1366.51
823.937	-1163.76
824.118	-979.44
824.3	5055.92
824.481	-922.1
824.662	-545.27
824.844	79.36
825.025	1332.72
825.207	-1716.71
825.388	95.74
825.569	-1024.5
825.751	-641.53
825.932	2704.85
826.113	-1890.79
826.295	1238.51
826.476	632.31
826.657	-45.57
826.839	-416.25
827.02	970.23
827.201	3423.69
827.382	-172.54
827.563	1256.94
827.744	-555.51
827.926	620.02
828.107	1951.2
828.288	-1382.89
828.469	593.4
828.65	1256.94
828.831	-2062.82
829.012	110.08
829.193	2104.8
829.374	-623.09
829.555	2217.44
829.736	5813.67
829.917	3235.28
830.098	1615.34
830.279	-2175.45
830.46	-743.92
830.641	169.47
830.822	214.52
831.002	1897.96
831.183	-649.72
831.364	1619.43
831.545	1340.91
831.726	275.96
831.906	28.16
832.087	1365.48
832.268	1070.58
832.449	1867.24
832.629	-1860.07
832.81	-573.94
832.991	-965.11
833.171	851.44
833.352	599.54
833.532	1973.73
833.713	-555.51
833.894	-43.52
834.074	-1982.95
834.255	-727.54
834.435	-750.07
834.616	-635.38
834.796	-170.49
834.977	1109.49
835.157	3382.73
835.338	-895.47
835.518	-1882.6
835.698	271.87
835.879	-877.04
836.059	374.27
836.239	179.71
836.42	179.71
836.6	480.76
836.78	-2130.4
836.961	-797.17
837.141	1476.07
837.321	-1286.64
837.501	3726.79
837.682	-657.91
837.862	-133.63
838.042	5778.86
838.222	-713.21
838.402	-268.8
838.582	-231.93
838.763	759.28
838.943	-471.54
839.123	2217.44
839.303	347.64
839.483	1627.62
839.663	-2656.73
839.843	12891.45
840.023	1961.44
840.203	1582.57
840.383	-391.67
840.563	-621.05
840.742	161.28
840.922	-842.23
841.102	1203.69
841.282	-117.25
841.462	62.98
841.642	-455.16
841.822	-1513.96
842.001	-2535.9
842.181	853.49
842.361	1000.94
842.541	1779.17
842.72	980.47
842.9	-367.1
843.08	468.47
843.259	-256.51
843.439	-352.76
843.619	-887.28
843.798	-121.34
843.978	1250.8
844.157	-616.95
844.337	1226.22
844.517	-745.97
844.696	2416.09
844.876	1435.11
845.055	-1315.31
845.235	1105.39
845.414	454.14
845.593	-1276.4
845.773	-686.58
845.952	-2404.83
846.132	-1751.53
846.311	-1417.71
846.49	957.94
846.67	1078.77
846.849	-762.36
847.028	-1440.23
847.208	1234.41
847.387	-975.35
847.566	2657.75
847.745	-1112.56
847.924	939.51
848.104	896.5
848.283	734.71
848.462	1777.12
848.641	2098.66
848.82	56.83
848.999	2631.13
849.178	-395.77
849.358	1541.61
849.537	271.87
849.716	-772.6
849.895	-1479.15
850.074	1959.39
850.253	2119.14
850.432	544.25
850.61	-25.09
850.789	-586.23
850.968	2135.52
851.147	2256.35
851.326	-956.91
851.505	-6.66
851.684	388.6
851.863	1824.23
852.041	650.74
852.22	-152.06
852.399	-801.27
852.578	1258.99
852.756	-1788.39
852.935	-403.96
853.114	1805.8
853.293	-1444.33
853.471	3165.65
853.65	710.13
853.828	-465.4
854.007	-1221.1
854.186	525.82
854.364	2033.12
854.543	722.42
854.721	-498.17
854.9	1070.58
855.078	2307.55
855.257	-422.39
855.435	-2968.02
855.614	468.47
855.792	-535.03
855.971	-473.59
856.149	-1772
856.327	927.22
856.506	257.53
856.684	-629.24
856.862	-995.82
857.041	-3307.98
857.219	1764.84
857.397	-872.95
857.576	-733.68
857.754	-694.77
857.932	1197.55
858.11	-297.47
858.288	-543.22
858.467	-2146.78
858.645	-2066.91
858.823	-430.59
859.001	501.24
859.179	-1628.65
859.357	-1053.17
859.535	871.92
859.713	1471.98
859.891	984.56
860.069	3517.9
860.247	-674.29
860.425	-2292.19
860.603	595.45
860.781	1807.84
860.959	466.42
861.137	-2458.07
861.315	-1333.74
861.493	286.2
861.67	1545.7
861.848	1269.23
862.026	-791.03
862.204	-864.75
862.382	-600.57
862.559	-231.93
862.737	882.16
862.915	1355.24
863.093	-565.75
863.27	1766.89
863.448	1625.58
863.626	60.93
863.803	-352.76
863.981	-1235.44
864.158	-2517.47
864.336	-1044.98
864.514	-1468.91
864.691	-1898.98
864.869	-879.09
865.046	-1712.61
865.224	56.83
865.401	1582.57
865.578	-1028.59
865.756	2407.9
865.933	-2435.55
866.111	1547.75
866.288	-1300.97
866.465	-580.09
866.643	-1546.73
866.82	-1184.24
866.997	-868.85
867.175	-510.46
867.352	-801.27
867.529	-2800.09
867.706	-1108.46
867.884	-35.33
868.061	-330.23
868.238	-844.28
868.415	-1638.89
868.592	-1061.36
868.77	-1038.83
868.947	1160.69
869.124	-909.81
869.301	-2236.89
869.478	-57.86
869.655	-3082.7
869.832	-43.52
870.009	2653.66
870.186	2463.19
870.363	110.08
870.54	28.16
870.717	-625.14
870.894	-166.4
871.071	759.28
871.247	-1812.96
871.424	-1014.26
871.601	-317.95
871.778	-905.71
871.955	-326.14
872.132	247.29
872.308	-90.62
872.485	-207.36
872.662	-680.44
872.839	1725.93
873.015	-881.14
873.192	407.03
873.369	445.95
873.545	-616.95
873.722	-29.18
873.898	7.68
874.075	-614.9
874.252	38.4
874.428	-328.19
874.605	-156.16
874.781	-2785.75
874.958	-1415.66
875.134	767.48
875.311	392.7
875.487	564.73
875.663	2518.49
875.84	103.93
876.016	1041.9
876.193	626.17
876.369	-1063.41
876.545	-948.72
876.722	-1329.64
876.898	79.36
877.074	519.67
877.25	1154.54
877.427	5791.14
877.603	-535.03
877.779	-567.8
877.955	-363
878.132	2121.18
878.308	1691.11
878.484	3309.01
878.66	-1382.89
878.836	1.54
879.012	15.87
879.188	640.5
879.364	-96.77
879.54	-647.67
879.716	-1651.17
879.892	235
880.068	1725.93
880.244	3612.1
880.42	-1110.51
880.596	-498.17
880.772	-666.1
880.948	-844.28
881.124	800.24
881.3	5014.96
881.475	9.73
881.651	-190.97
881.827	-498.17
882.003	-268.8
882.178	-2240.99
882.354	-522.74
882.53	-983.54
882.706	-100.86
882.881	497.14
883.057	-1542.63
883.233	-291.32
883.408	1744.36
883.584	-739.83
883.759	-1638.89
883.935	-1870.31
884.111	-2079.2
884.286	-774.64
884.462	-2361.82
884.637	-784.88
884.813	-1741.29
884.988	-379.39
885.164	3124.69
885.339	-1386.99
885.514	1451.5
885.69	-1067.5
885.865	-2021.86
886.04	656.89
886.216	-723.44
886.391	837.11
886.566	-147.97
886.742	-2093.54
886.917	-64
887.092	2203.1
887.267	-1991.14
887.443	-2378.2
887.618	-1208.81
887.793	-1040.88
887.968	318.97
888.143	-1894.88
888.318	-86.53
888.494	906.74
888.669	-356.86
888.844	-162.3
889.019	-690.68
889.194	-791.03
889.369	-1171.95
889.544	-788.98
889.719	1058.29
889.894	2307.55
890.069	509.43
890.243	775.67
890.418	-793.08
890.593	-1253.87
890.768	-229.88
890.943	1664.49
891.118	-725.49
891.293	-158.21
891.467	-1313.26
891.642	3046.87
891.817	-815.6
891.992	19.97
892.166	-1274.35
892.341	1160.69
892.516	-231.93
892.69	38.4
892.865	-2169.31
893.04	-354.81
893.214	1185.26
893.389	509.43
893.563	2792.92
893.738	3077.59
893.912	-928.24
894.087	185.85
894.261	1271.28
894.436	-1219.05
894.61	2598.36
894.785	-117.25
894.959	-129.53
895.134	1736.17
895.308	-1440.23
895.482	1046
895.657	-1450.47
895.831	-1124.85
896.005	5741.99
896.18	-705.01
896.354	-121.34
896.528	-2089.44
896.702	181.76
896.877	1918.43
897.051	-1960.42
897.225	275.96
897.399	374.27
897.573	-866.8
897.747	153.09
897.922	-219.64
898.096	1957.35
898.27	-1415.66
898.444	-903.67
898.618	439.8
898.792	130.56
898.966	282.11
899.14	493.05
899.314	605.69
899.488	2029.03
899.662	130.56
899.835	339.45
900.009	99.84
900.183	-1546.73
900.357	3634.63
900.531	-782.84
900.705	-973.3
900.878	-1776.1
901.052	-928.24
901.226	1107.44
901.4	624.12
901.573	-946.67
901.747	-1386.99
901.921	-197.12
902.095	261.63
902.268	1850.85
902.442	-1233.39
902.615	-1925.6
902.789	1269.23
902.963	5914.02
903.136	-449.02
903.31	2395.61
903.483	-1436.14
903.657	1549.8
903.83	249.34
904.004	-2652.63
904.177	60.93
904.35	-469.5
904.524	-2163.17
904.697	228.86
904.871	433.66
905.044	1086.96
905.217	4859.32
905.391	3321.29
905.564	884.21
905.737	591.35
905.91	-358.91
906.084	-2191.84
906.257	402.94
906.43	-2329.05
906.603	-4.61
906.776	-3381.71
906.949	-1174
907.123	-1368.56
907.296	-428.54
907.469	2192.86
907.642	-489.98
907.815	1412.59
907.988	-168.45
908.161	-907.76
908.334	-1257.96
908.507	904.69
908.68	566.78
908.853	54.78
909.026	-539.13
909.199	-465.4
909.371	2407.9
909.544	1453.55
909.717	65.02
909.89	-1186.29
910.063	-1251.82
910.236	73.21
910.408	1111.54
910.581	-2148.83
910.754	-2335.2
910.927	-2652.63
911.099	257.53
911.272	529.91
911.445	77.31
911.617	-551.42
911.79	1760.74
911.962	-303.61
912.135	-872.95
912.308	-4.61
912.48	-1794.53
912.653	-1196.53
912.825	-936.43
912.998	-717.3
913.17	1238.51
913.343	1601
913.515	-727.54
913.687	-1688.04
913.86	34.3
914.032	1572.33
914.205	-621.05
914.377	-143.87
914.549	-3082.7
914.721	669.17
914.894	-1554.92
915.066	-360.95
915.238	-1638.89
915.41	2258.4
915.583	312.83
915.755	-1700.33
915.927	-25.09
916.099	1170.93
916.271	-780.79
916.443	-1759.72
916.616	-2066.91
916.788	22303.92
916.96	2461.15
917.132	-3619.27
917.304	-131.58
917.476	1693.16
917.648	378.36
917.82	-2961.87
917.992	1746.41
918.164	1086.96
918.335	366.07
918.507	1136.11
918.679	-2447.83
918.851	1580.52
919.023	-508.41
919.195	17.92
919.366	-2228.7
919.538	-2539.99
919.71	-1638.89
919.882	-1341.93
920.053	-1946.08
920.225	-1149.42
920.397	1664.49
920.568	-1780.2
920.74	-1196.53
920.912	-1241.58
921.083	-1573.35
921.255	-2009.57
921.426	-2036.19
921.598	-12.8
921.77	-956.91
921.941	-2009.57
922.113	-1886.69
922.284	1246.7
922.455	-1188.33
922.627	-2320.86
922.798	-2169.31
922.97	-1585.64
923.141	-1468.91
923.312	-3422.67
923.484	824.82
923.655	-2318.81
923.826	869.87
923.998	-1077.74
924.169	886.26
924.34	-1675.75
924.511	-29.18
924.683	-272.89
924.854	-1327.6
925.025	-332.28
925.196	1074.67
925.367	687.61
925.538	1.54
925.709	-309.76
925.881	488.95
926.052	-1489.39
926.223	-715.25
926.394	970.23
926.565	-1047.02
926.736	-3453.39
926.907	-1812.96
927.078	378.36
927.248	2102.75
927.419	775.67
927.59	-2699.73
927.761	865.78
927.932	839.16
928.103	-311.8
928.274	-1247.72
928.444	-477.69
928.615	-1192.43
928.786	-1288.68
928.957	-2042.34
929.127	-1235.44
929.298	91.65
929.469	-1290.73
929.639	-240.12
929.81	-236.03
929.981	-213.5
930.151	216.57
930.322	3124.69
930.492	599.54
930.663	3233.23
930.833	-1579.5
931.004	-508.41
931.174	366.07
931.345	-18.94
931.515	-1757.67
931.686	-412.15
931.856	2037.22
932.027	-1968.61
932.197	943.6
932.367	-1810.92
932.538	1279.47
932.708	-1155.57
932.878	-225.79
933.048	-801.27
933.219	-1157.61
933.389	1725.93
933.559	-1696.23
933.729	-1862.12
933.9	259.58
934.07	-2103.78
934.24	-2451.93
934.41	15.87
934.58	-156.16
934.75	722.42
934.92	-3068.37
935.09	255.48
935.26	-1163.76
935.43	2338.27
935.6	-934.39
935.77	521.72
935.94	335.35
936.11	-1141.23
936.28	-1718.76
936.45	957.94
936.62	-2.56
936.79	595.45
936.96	-772.6
937.129	-817.65
937.299	-27.14
937.469	56.83
937.639	22.02
937.808	-852.47
937.978	-2224.61
938.148	1340.91
938.317	11.78
938.487	243.2
938.657	-1473
938.826	-1563.11
938.996	-723.44
939.166	-3699.14
939.335	-2099.68
939.505	-64
939.674	-1278.44
939.844	-2130.4
940.013	228.86
940.183	-2150.88
940.352	-1964.51
940.522	-672.25
940.691	-1061.36
940.86	548.34
941.03	-862.71
941.199	71.17
941.368	454.14
941.538	1203.69
941.707	-1888.74
941.876	-541.18
942.046	869.87
942.215	-156.16
942.384	-2101.73
942.553	-518.65
942.722	-700.92
942.892	1545.7
943.061	-2873.81
943.23	372.22
943.399	3395.02
943.568	-637.43
943.737	1992.16
943.906	-53.76
944.075	-1522.15
944.244	1410.54
944.413	-952.82
944.582	-2572.76
944.751	-64
944.92	-510.46
945.089	570.87
945.258	-729.59
945.427	-563.7
945.596	-838.13
945.764	-610.81
945.933	-1188.33
946.102	898.55
946.271	-717.3
946.44	-1024.5
946.608	-1368.56
946.777	-1071.6
946.946	-844.28
947.114	2035.17
947.283	-838.13
947.452	-1825.25
947.62	-1171.95
947.789	1054.19
947.958	-1292.78
948.126	95.74
948.295	58.88
948.463	-995.82
948.632	-1051.12
948.8	-821.75
948.969	-1898.98
949.137	-874.99
949.305	-1759.72
949.474	726.52
949.642	706.04
949.811	491
949.979	-276.99
950.147	-2146.78
950.316	-2099.68
950.484	-2210.27
950.652	-1456.62
950.82	1052.14
950.989	-3000.79
951.157	-1739.24
951.325	-2058.72
951.493	1543.66
951.661	687.61
951.83	701.94
951.998	-2544.09
952.166	-662.01
952.334	-1798.63
952.502	2799.06
952.67	982.51
952.838	560.63
953.006	2330.08
953.174	56.83
953.342	212.48
953.51	-340.47
953.678	-649.72
953.846	-2724.31
954.014	-338.43
954.181	2151.9
954.349	-1561.06
954.517	-1939.94
954.685	-1964.51
954.853	-1237.49
955.02	-1772
955.188	-2220.51
955.356	-1425.9
955.524	1205.74
955.691	-551.42
955.859	-1755.62
956.027	-457.21
956.194	2811.35
956.362	-1153.52
956.529	738.8
956.697	-1251.82
956.865	495.1
957.032	1330.67
957.2	-2539.99
957.367	-2232.8
957.535	327.16
957.702	634.36
957.87	-2210.27
958.037	79.36
958.204	-1206.77
958.372	769.52
958.539	177.66
958.706	-406.01
958.874	3046.87
959.041	361.98
959.208	-2232.8
959.376	-1352.17
959.543	1027.57
959.71	-158.21
959.877	1162.73
960.044	-336.38
960.212	2801.11
960.379	3155.41
960.546	337.4
960.713	-2679.26
960.88	-557.56
961.047	52.74
961.214	26661.99
961.381	2375.13
961.548	-954.87
961.715	-301.56
961.882	-2370.01
962.049	-918
962.216	-911.86
962.383	-1380.84
962.55	-971.25
962.717	1525.22
962.883	660.98
963.05	2522.59
963.217	478.71
963.384	-1315.31
963.551	-387.58
963.717	-1450.47
963.884	-127.49
964.051	458.23
964.218	1365.48
964.384	5819.82
964.551	-1976.8
964.717	-2720.21
964.884	-549.37
965.051	-1434.09
965.217	-2181.6
965.384	-2675.16
965.55	953.84
965.717	812.53
965.883	26.11
966.05	-1354.22
966.216	2129.38
966.383	957.94
966.549	-55.81
966.716	-893.43
966.882	-1673.7
967.048	-1343.98
967.215	-2275.81
967.381	-1305.07
967.547	1592.81
967.713	2344.41
967.88	607.73
968.046	-2388.44
968.212	-799.22
968.378	1023.47
968.545	-2464.22
968.711	1162.73
968.877	-670.2
969.043	-170.49
969.209	-2064.86
969.375	984.56
969.541	2014.69
969.707	2749.91
969.873	1150.45
970.039	-651.77
970.205	1768.93
970.371	4875.7
970.537	1412.59
970.703	249.34
970.869	-1008.11
971.035	1723.88
971.201	136.7
971.367	-1712.61
971.532	-518.65
971.698	-434.68
971.864	1324.52
972.03	-1993.19
972.195	-1415.66
972.361	1953.25
972.527	-1192.43
972.693	3341.77
972.858	1603.05
973.024	-1858.02
973.19	-758.26
973.355	153.09
973.521	826.87
973.686	1531.37
973.852	-2607.58
974.017	4351.42
974.183	-2212.32
974.348	499.19
974.514	-2372.06
974.679	-188.93
974.845	-1501.67
975.01	-313.85
975.175	-3000.79
975.341	17485.05
975.506	-270.84
975.672	577.02
975.837	3853.77
976.002	-164.35
976.167	-877.04
976.333	4933.04
976.498	-897.52
976.663	-1886.69
976.828	722.42
976.993	-1110.51
977.159	261.63
977.324	480.76
977.489	3171.79
977.654	-82.43
977.819	-1036.78
977.984	-602.61
978.149	2815.45
978.314	1426.92
978.479	-1288.68
978.644	-1847.78
978.809	-807.41
978.974	-1763.81
979.139	2033.12
979.304	22.02
979.469	-809.46
979.633	-731.64
979.798	-688.63
979.963	-1593.83
980.128	2964.95
980.293	-1780.2
980.457	-1522.15
980.622	-2423.26
980.787	-1825.25
980.951	-203.26
981.116	-477.69
981.281	-1874.4
981.445	-174.59
981.61	843.25
981.775	-1815.01
981.939	-2607.58
982.104	1938.91
982.268	1222.13
982.433	1439.21
982.597	-1614.31
982.762	2688.47
982.926	796.15
983.091	-784.88
983.255	-2607.58
983.419	-1745.38
983.584	1615.34
983.748	-72.19
983.912	-154.11
984.077	2096.61
984.241	2174.43
984.405	-1835.49
984.57	1965.54
984.734	-594.42
984.898	-258.56
985.062	-1210.86
985.226	-1413.61
985.39	2577.88
985.555	165.37
985.719	1992.16
985.883	208.38
986.047	-1290.73
986.211	712.18
986.375	-70.14
986.539	-1268.2
986.703	-1339.88
986.867	-154.11
987.031	734.71
987.195	-1104.37
987.359	-1546.73
987.523	187.9
987.686	-1982.95
987.85	-1630.7
988.014	599.54
988.178	-1071.6
988.342	941.55
988.506	503.29
988.669	-539.13
988.833	316.92
988.997	562.68
989.16	-637.43
989.324	-260.6
989.488	2819.54
989.651	85.5
989.815	3333.58
989.979	-1106.42
990.142	108.03
990.306	-684.53
990.469	1455.59
990.633	992.75
990.796	2141.66
990.96	-846.32
991.123	677.37
991.286	1619.43
991.45	949.75
991.613	-1855.97
991.777	-2234.85
991.94	-2083.3
992.103	566.78
992.267	2778.58
992.43	-911.86
992.593	341.5
992.756	183.81
992.92	587.26
993.083	544.25
993.246	-279.04
993.409	-2757.08
993.572	-2214.37
993.735	-475.64
993.899	235
994.062	-397.82
994.225	-842.23
994.388	247.29
994.551	2485.72
994.714	-412.15
994.877	-428.54
995.04	-1595.88
995.203	-1411.56
995.366	1220.08
995.528	-1458.67
995.691	1005.04
995.854	-1378.79
996.017	-727.54
996.18	-2765.27
996.343	-373.24
996.505	1873.38
996.668	628.21
996.831	-590.33
996.994	-479.74
997.156	-340.47
997.319	-1339.88
997.482	1541.61
997.644	-1561.06
997.807	1103.34
997.97	-1976.8
998.132	-1217.01
998.295	1213.93
998.457	450.04
998.62	-1223.15
998.782	-1681.89
998.945	194.05
999.107	-23.04
999.27	69.12
999.432	-745.97
999.594	708.09
999.757	2139.62
999.919	108.03
1000.081	-2261.47
1000.244	-346.62
1000.406	-129.53
1000.568	-213.5
1000.731	2082.27
1000.893	1457.64
1001.055	1443.31
1001.217	-575.99
1001.379	-2220.51
1001.542	-1337.84
1001.704	3386.83
1001.866	-774.64
1002.028	1070.58
1002.19	507.38
1002.352	-1137.13
1002.514	-1425.9
1002.676	5424.56
1002.838	1756.65
1003	-596.47
1003.162	-1339.88
1003.324	2420.19
1003.486	1152.49
1003.648	-1386.99
1003.809	-719.35
1003.971	1002.99
1004.133	-92.67
1004.295	-211.45
1004.457	-406.01
1004.618	728.56
1004.78	58.88
1004.942	3780.04
1005.104	22.02
1005.265	-1509.86
1005.427	1078.77
1005.589	-725.49
1005.75	439.8
1005.912	1807.84
1006.073	2188.77
1006.235	267.77
1006.396	-332.28
1006.558	-307.71
1006.72	-162.3
1006.881	380.41
1007.042	-1208.81
1007.204	-1870.31
1007.365	-1393.13
1007.527	1005.04
1007.688	3069.39
1007.849	-109.05
1008.011	-113.15
1008.172	413.18
1008.333	888.31
1008.495	-328.19
1008.656	-2005.47
1008.817	1080.82
1008.978	2569.69
1009.139	-621.05
1009.301	495.1
1009.462	-2617.82
1009.623	1027.57
1009.784	-1251.82
1009.945	177.66
1010.106	755.19
1010.267	222.72
1010.428	-1393.13
1010.589	-2017.76
1010.75	28.16
1010.911	-1286.64
1011.072	-2408.92
1011.233	941.55
1011.394	-477.69
1011.555	99.84
1011.716	577.02
1011.877	-1356.27
1012.037	372.22
1012.198	-1423.85
1012.359	519.67
1012.52	-1372.65
1012.68	-363
1012.841	11.78
1013.002	292.35
1013.163	-895.47
1013.323	413.18
1013.484	-1917.41
1013.644	-1440.23
1013.805	638.45
1013.966	-541.18
1014.126	2631.13
1014.287	-844.28
1014.447	-530.94
1014.608	1291.76
1014.768	-1149.42
1014.929	1095.15
1015.089	-1339.88
1015.249	380.41
1015.41	153.09
1015.57	1109.49
1015.731	-2257.37
1015.891	-733.68
1016.051	744.95
1016.211	-592.37
1016.372	1484.27
1016.532	-811.51
1016.692	-369.15
1016.852	654.84
1017.013	-600.57
1017.173	-61.95
1017.333	-1104.37
1017.493	-850.42
1017.653	-1354.22
1017.813	-1962.47
1017.973	-274.94
1018.133	-1511.91
1018.293	-1919.46
1018.453	-410.11
1018.613	-1984.99
1018.773	2088.42
1018.933	-193.02
1019.093	1007.09
1019.253	-92.67
1019.413	1138.16
1019.573	-2226.65
1019.733	-504.31
1019.892	2080.22
1020.052	-678.39
1020.212	493.05
1020.372	136.7
1020.531	1654.25
1020.691	-274.94
1020.851	435.71
1021.01	273.92
1021.17	384.51
1021.33	-602.61
1021.489	-1577.45
1021.649	-43.52
1021.808	-4.61
1021.968	390.65
1022.127	-2816.47
1022.287	2029.03
1022.446	-655.86
1022.606	566.78
1022.765	-1540.58
1022.925	2729.43
1023.084	-705.01
1023.244	1813.99
1023.403	-545.27
1023.562	-969.2
1023.722	-446.97
1023.881	-690.68
1024.04	-266.75
1024.199	660.98
1024.359	58.88
1024.518	-2267.61
1024.677	-815.6
1024.836	-897.52
1024.995	798.2
1025.154	-1126.89
1025.313	-141.82
1025.473	-1268.2
1025.632	-1270.25
1025.791	714.23
1025.95	-1501.67
1026.109	-813.56
1026.268	134.65
1026.427	1244.65
1026.586	1711.59
1026.744	36.35
1026.903	6294.94
1027.062	-262.65
1027.221	1095.15
1027.38	370.17
1027.539	970.23
1027.698	5023.16
1027.856	-1368.56
1028.015	740.85
1028.174	415.23
1028.333	419.32
1028.491	4107.71
1028.65	1504.75
1028.808	3870.15
1028.967	890.35
1029.126	665.08
1029.284	-2066.91
1029.443	974.32
1029.601	-756.21
1029.76	-1595.88
1029.918	-1288.68
1030.077	626.17
1030.235	2262.49
1030.394	-711.16
1030.552	1091.06
1030.711	2670.04
1030.869	-416.25
1031.027	-664.05
1031.186	-2550.23
1031.344	-1268.2
1031.502	-242.17
1031.661	1324.52
1031.819	2084.32
1031.977	1170.93
1032.135	-1747.43
1032.293	-1040.88
1032.452	-1485.29
1032.61	3782.09
1032.768	-1817.06
1032.926	99.84
1033.084	3210.7
1033.242	-702.97
1033.4	-1577.45
1033.558	910.83
1033.716	-231.93
1033.874	-899.57
1034.032	-162.3
1034.19	-195.07
1034.348	2375.13
1034.506	-1946.08
1034.664	540.15
1034.822	-1747.43
1034.979	2612.7
1035.137	787.96
1035.295	-170.49
