Data from Quartz 10 sec exposure (900 SPF and 750LPF in Output, 700SpF Input)_USBC44471_14-41-51-858.txt Node
Date: Wed Jul 29 14:41:51 MDT 2020
User: Montana Instruments
Spectrometer: USBC4447
Scans to average: 1
Trigger mode: 4
Integration Time (sec): 1.000000E1
Electric dark correction enabled: true
Boxcar width: 0
XAxis mode: Wavelengths
Number of Pixels in Spectrum: 3648
>>>>>Begin Spectral Data<<<<<
344.991	-5397.76
345.205	-5397.76
345.419	-5397.76
345.633	-5418.24
345.847	-5487.87
346.061	-341.33
346.275	1223.32
346.489	-1482.05
346.703	-152.91
346.917	-1774.91
347.131	1108.63
347.345	-867.66
347.559	-929.1
347.773	1462.93
347.986	-42.32
348.2	3064.44
348.414	-1269.06
348.628	-757.07
348.842	-1158.47
349.056	-1187.14
349.269	367.27
349.483	1241.75
349.697	1432.21
349.911	1319.57
350.125	-1062.21
350.338	262.82
350.552	907.93
350.766	-714.06
350.979	-1705.28
351.193	-492.88
351.407	5335.64
351.621	-286.03
351.834	-1582.4
352.048	2425.48
352.262	-488.78
352.475	3533.43
352.689	1069.72
352.902	1460.88
353.116	-54.61
353.33	-1551.68
353.543	-1199.43
353.757	443.04
353.971	189.1
354.184	256.68
354.398	-582.99
354.611	744.1
354.825	2876.03
355.038	1268.38
355.252	-247.12
355.465	-390.48
355.679	-1969.46
355.892	813.73
356.106	1129.11
356.319	7725.62
356.533	-630.09
356.746	-302.42
356.96	-798.03
357.173	-1576.25
357.386	1372.82
357.6	-892.23
357.813	-1006.92
358.027	-2063.67
358.24	-894.28
358.453	2695.81
358.667	-1369.41
358.88	1045.15
359.094	-1127.75
359.307	121.51
359.52	-449.87
359.733	2253.45
359.947	-2383.15
360.16	1262.23
360.373	1667.73
360.587	-1303.87
360.8	-662.86
361.013	-322.9
361.226	-941.38
361.44	2716.29
361.653	1393.3
361.866	-1084.74
362.079	-2157.88
362.292	144.04
362.506	3439.22
362.719	426.66
362.932	2933.37
363.145	29.35
363.358	-1023.3
363.571	-1570.11
363.785	-351.57
363.998	1356.44
364.211	1921.68
364.424	-1486.14
364.637	1008.28
364.85	-853.32
365.063	2097.8
365.276	111.27
365.489	-1588.54
365.702	-275.79
365.915	426.66
366.128	-501.07
366.341	1929.87
366.554	3418.74
366.767	-922.95
366.98	-208.21
367.193	959.13
367.406	-1523.01
367.619	3934.83
367.832	1993.36
368.045	103.08
368.258	379.56
368.471	1020.57
368.684	-2192.69
368.896	-1930.55
369.109	35.5
369.322	-1181
369.535	-449.87
369.748	-1543.49
369.961	-830.79
370.173	-2860.33
370.386	-2714.92
370.599	2519.68
370.812	-585.04
371.025	-843.08
371.237	217.77
371.45	225.96
371.663	922.27
371.876	-775.5
372.088	4973.15
372.301	-920.9
372.514	-1545.53
372.726	375.46
372.939	-382.29
373.152	-478.54
373.364	813.73
373.577	3412.6
373.79	-669
374.002	-1162.56
374.215	-2907.43
374.428	-1924.41
374.64	1598.1
374.853	-996.68
375.065	-544.08
375.278	3580.53
375.491	-52.56
375.703	1442.45
375.916	-2063.67
376.128	-746.83
376.341	-1680.7
376.553	864.93
376.766	-1506.62
376.978	-1953.08
377.191	903.84
377.403	-1883.45
377.616	3060.35
377.828	4102.76
378.04	-1502.53
378.253	-644.43
378.465	342.69
378.678	1024.67
378.89	-1281.35
379.103	-884.04
379.315	98.99
379.527	-1776.95
379.74	-638.28
379.952	-288.08
380.164	-1639.74
380.377	1970.83
380.589	-5.46
380.801	43.69
381.014	1589.91
381.226	924.32
381.438	-91.48
381.65	-1398.08
381.863	12.97
382.075	-990.53
382.287	-2256.18
382.499	-1041.73
382.712	-185.68
382.924	29.35
383.136	-990.53
383.348	-2995.5
383.56	-107.86
383.772	-990.53
383.985	27.31
384.197	1145.5
384.409	-628.04
384.621	488.1
384.833	-17.75
385.045	37.55
385.257	-1428.8
385.469	-732.49
385.681	19.11
385.893	58.03
386.105	-1213.76
386.318	-2602.29
386.53	-183.63
386.742	-3046.69
386.954	-2262.32
387.166	2742.91
387.378	86.7
387.589	-111.96
387.801	-2946.34
388.013	-1547.58
388.225	-1320.26
388.437	-2268.47
388.649	-1899.83
388.861	2607.75
389.073	1131.16
389.285	-746.83
389.497	692.9
389.709	1460.88
389.92	-1353.02
390.132	-1056.07
390.344	-963.91
390.556	-824.65
390.768	197.29
390.98	-1045.83
391.191	1942.16
391.403	570.02
391.615	209.58
391.827	-1181
392.038	-992.58
392.25	-456.01
392.462	-2321.71
392.674	-2084.15
392.885	-1561.92
393.097	-2471.22
393.309	-795.98
393.52	942.75
393.732	-1598.78
393.944	588.45
394.155	248.49
394.367	-1531.2
394.579	363.17
394.79	-1285.44
395.002	129.7
395.213	-2688.3
395.425	-445.77
395.637	-1154.37
395.848	-2426.16
396.06	309.93
396.271	385.7
396.483	-1203.52
396.694	-404.82
396.906	-669
397.117	1313.43
397.329	1313.43
397.54	-861.51
397.752	-2071.86
397.963	-1260.87
398.175	170.66
398.386	1028.76
398.598	-853.32
398.809	-2432.3
399.02	826.01
399.232	627.36
399.443	43.69
399.655	-1135.94
399.866	-1185.09
400.077	-558.41
400.289	1378.97
400.5	-42.32
400.711	844.45
400.923	-1594.68
401.134	-1181
401.345	-2018.61
401.556	3420.79
401.768	-1150.28
401.979	-1230.15
402.19	717.47
402.401	-582.99
402.613	39.59
402.824	-773.45
403.035	-2700.59
403.246	-1817.91
403.457	461.48
403.669	-44.37
403.88	-1420.61
404.091	-2196.79
404.302	-1383.74
404.513	-695.63
404.724	-859.46
404.935	-908.62
405.146	842.4
405.358	-1967.42
405.569	-1654.08
405.78	-2092.34
405.991	-861.51
406.202	8.87
406.413	-478.54
406.624	-1717.56
406.835	-447.82
407.046	2841.22
407.257	-146.77
407.468	1219.22
407.679	-480.59
407.89	1946.25
408.101	1927.82
408.312	-632.14
408.522	-1983.8
408.733	264.87
408.944	39.59
409.155	-847.18
409.366	830.11
409.577	-1924.41
409.788	-384.34
409.999	199.34
410.209	-849.22
410.42	-124.24
410.631	-2020.66
410.842	-394.58
411.053	5096.03
411.264	1104.54
411.474	-1359.17
411.685	-204.11
411.896	-1428.8
412.107	-2297.14
412.317	-1211.71
412.528	2005.64
412.739	-2284.85
412.949	-1256.77
413.16	82.6
413.371	2282.12
413.581	1036.95
413.792	-658.76
414.003	3633.78
414.213	1825.42
414.424	-2147.64
414.635	-634.19
414.845	-1260.87
415.056	-95.57
415.266	-1676.6
415.477	-2579.76
415.687	684.7
415.898	629.41
416.109	-1785.15
416.319	471.72
416.53	-2813.23
416.74	62.12
416.951	-1361.22
417.161	-48.47
417.372	191.14
417.582	510.63
417.792	1632.91
418.003	2327.18
418.213	-910.66
418.424	395.94
418.634	-1760.57
418.844	948.89
419.055	1938.06
419.265	-1480
419.476	397.99
419.686	-1197.38
419.896	-83.28
420.107	-1256.77
420.317	-810.31
420.527	-91.48
420.738	-634.19
420.948	1086.11
421.158	1325.72
421.368	-664.91
421.579	-429.39
421.789	-1303.87
421.999	-3448.1
422.209	-544.08
422.419	-482.64
422.63	-183.63
422.84	-572.75
423.05	-1199.43
423.26	-1271.11
423.47	-306.51
423.681	-2153.78
423.891	875.17
424.101	1665.68
424.311	-849.22
424.521	-425.29
424.731	-689.48
424.941	-806.22
425.151	1710.74
425.361	-1789.24
425.571	-2645.29
425.781	4037.23
425.991	795.29
426.201	1557.14
426.411	406.18
426.621	-1467.71
426.831	-2010.42
427.041	72.36
427.251	-466.25
427.461	1305.24
427.671	1043.1
427.881	-879.94
428.091	-267.6
428.301	2443.91
428.511	-150.87
428.721	-3153.19
428.93	-511.31
429.14	-1228.1
429.35	135.85
429.56	-1264.96
429.77	-474.45
429.98	-1436.99
430.189	-1146.18
430.399	2837.12
430.609	1362.58
430.819	195.24
431.029	-1484.09
431.238	-1004.87
431.448	-855.37
431.658	-2649.39
431.867	-859.46
432.077	297.64
432.287	-1242.43
432.497	-1029.45
432.706	-85.33
432.916	-544.08
433.125	-3167.52
433.335	-1295.68
433.545	1188.5
433.754	3727.99
433.964	-1443.14
434.174	-1074.5
434.383	2136.71
434.593	-1230.15
434.802	987.8
435.012	-1350.98
435.221	387.75
435.431	-595.28
435.64	-1137.99
435.85	-1219.91
436.059	275.11
436.269	699.04
436.478	-1137.99
436.688	-2415.92
436.897	-1008.97
437.107	-2262.32
437.316	28313.85
437.525	152.23
437.735	164.52
437.944	-138.58
438.154	2472.58
438.363	146.09
438.572	2921.09
438.782	281.25
438.991	-947.53
439.2	-331.09
439.41	-1127.75
439.619	-1328.45
439.828	170.66
440.038	-44.37
440.247	2103.95
440.456	-1592.64
440.665	647.84
440.875	916.12
441.084	244.39
441.293	-1854.78
441.502	-1252.67
441.711	-1174.85
441.92	340.65
442.13	-613.71
442.339	-1232.19
442.548	-582.99
442.757	1712.78
442.966	-2956.58
443.175	-1162.56
443.384	1354.39
443.593	1493.65
443.803	-2057.53
444.012	-290.13
444.221	-589.13
444.43	4592.23
444.639	481.96
444.848	2118.28
445.057	-1289.54
445.266	-1342.78
445.475	-2534.7
445.684	-1408.32
445.893	2136.71
446.102	144.04
446.311	-3259.68
446.52	-27.99
446.728	2962.05
446.937	-2762.03
447.146	-3671.33
447.355	334.5
447.564	-380.24
447.773	1403.54
447.982	1534.61
448.191	656.03
448.399	-1289.54
448.608	-867.66
448.817	-656.72
449.026	907.93
449.235	-1703.23
449.443	1163.93
449.652	-552.27
449.861	-937.29
450.07	80.55
450.278	1833.61
450.487	-3255.59
450.696	-73.04
450.904	-1314.11
451.113	-976.2
451.322	619.17
451.53	-763.21
451.739	2841.22
451.948	-1256.77
452.156	39.59
452.365	4188.78
452.574	887.45
452.782	131.75
452.991	-589.13
453.199	778.91
453.408	215.72
453.616	-1563.97
453.825	1290.9
454.033	1331.86
454.242	3291.77
454.45	3357.3
454.659	459.43
454.867	4024.94
455.076	-1230.15
455.284	-912.71
455.493	-1834.3
455.701	-1176.9
455.91	3039.87
456.118	-1113.41
456.326	-2221.36
456.535	2648.71
456.743	1135.26
456.951	-2194.74
457.16	1149.59
457.368	774.81
457.576	-1633.6
457.785	2650.75
457.993	-230.74
458.201	-1391.94
458.41	703.14
458.618	-1174.85
458.826	-314.7
459.034	-2927.91
459.243	-1684.8
459.451	-85.33
459.659	-7.51
459.867	-699.72
460.075	-910.66
460.284	-286.03
460.492	-2254.13
460.7	-429.39
460.908	-814.41
461.116	-2764.08
461.324	-1408.32
461.532	-2399.54
461.741	-2030.9
461.949	-1131.84
462.157	2009.74
462.365	2.73
462.573	-265.55
462.781	422.56
462.989	-894.28
463.197	-1559.87
463.405	-2264.37
463.613	31.4
463.821	-2549.04
464.029	-89.43
464.237	-1178.95
464.445	-777.55
464.653	907.93
464.861	-593.23
465.069	1157.79
465.276	4764.26
465.484	-804.17
465.692	-810.31
465.9	-1113.41
466.108	-798.03
466.316	780.96
466.524	-857.42
466.731	-658.76
466.939	1753.74
467.147	-126.29
467.355	-228.69
467.563	1606.29
467.77	778.91
467.978	-2585.9
468.186	352.93
468.393	1976.97
468.601	-630.09
468.809	-1989.94
469.017	-716.11
469.224	-1938.74
469.432	942.75
469.64	-1498.43
469.847	-2182.45
470.055	565.92
470.263	-1164.61
470.47	-1189.19
470.678	1276.57
470.885	-218.45
471.093	2634.37
471.3	838.3
471.508	-1275.2
471.716	-572.75
471.923	254.63
472.131	412.32
472.338	-1387.84
472.546	-863.56
472.753	2912.89
472.961	-1533.25
473.168	-210.26
473.375	-513.36
473.583	926.36
473.79	-669
473.998	160.42
474.205	348.84
474.412	1843.85
474.62	-904.52
474.827	-1457.47
475.035	1356.44
475.242	-933.19
475.449	-1549.63
475.657	4141.68
475.864	3132.03
476.071	-40.28
476.278	-906.57
476.486	-634.19
476.693	291.49
476.9	262.82
477.107	426.66
477.315	-1142.08
477.522	-27.99
477.729	1540.76
477.936	-746.83
478.143	-1547.58
478.351	1297.05
478.558	-1346.88
478.765	-705.87
478.972	-331.09
479.179	412.32
479.386	699.04
479.593	1030.81
479.8	891.55
480.007	-1756.47
480.215	-263.51
480.422	1094.3
480.629	-2278.71
480.836	1049.24
481.043	3244.67
481.25	-720.2
481.457	-1625.4
481.664	-695.63
481.871	574.11
482.078	-1381.7
482.284	-1662.27
482.491	2110.09
482.698	1749.65
482.905	-1181
483.112	-2307.38
483.319	176.81
483.526	164.52
483.733	2290.31
483.94	-2655.53
484.146	-1740.09
484.353	-30.04
484.56	-660.81
484.767	-3255.59
484.974	2159.24
485.18	1563.28
485.387	-562.51
485.594	-1297.73
485.801	1872.53
486.007	178.86
486.214	-941.38
486.421	-2051.38
486.627	-531.79
486.834	727.71
487.041	449.19
487.247	-1428.8
487.454	-1518.91
487.661	1102.49
487.867	578.21
488.074	-1791.29
488.281	1077.91
488.487	-230.74
488.694	-1064.26
488.9	-587.08
489.107	-1105.22
489.313	-953.67
489.52	-808.26
489.726	-1826.11
489.933	2898.56
490.139	2904.7
490.346	-564.56
490.552	146.09
490.759	-429.39
490.965	23.21
491.172	3259
491.378	-533.84
491.584	76.46
491.791	1741.46
491.997	-212.31
492.204	-531.79
492.41	3308.15
492.616	-1785.15
492.823	-1555.77
493.029	-1215.81
493.235	2511.49
493.442	-210.26
493.648	-904.52
493.854	-777.55
494.06	4794.98
494.267	668.32
494.473	-947.53
494.679	-1322.31
494.885	475.81
495.091	3220.09
495.298	807.58
495.504	-2487.6
495.71	-398.67
495.916	-1942.84
496.122	2601.6
496.328	561.83
496.535	649.89
496.741	-431.44
496.947	623.27
497.153	-306.51
497.359	479.91
497.565	498.34
497.771	1804.94
497.977	-197.97
498.183	-740.68
498.389	883.36
498.595	-1619.26
498.801	543.39
499.007	895.65
499.213	-517.45
499.419	-615.76
499.625	-50.52
499.831	3332.73
500.037	-654.67
500.243	-1400.13
500.448	-726.35
500.654	955.04
500.86	1929.87
501.066	-619.85
501.272	2708.1
501.478	-2067.77
501.684	-810.31
501.889	-1905.98
502.095	-1516.86
502.301	-339.28
502.507	551.59
502.712	-652.62
502.918	-1295.68
503.124	-1074.5
503.33	815.77
503.535	-894.28
503.741	213.67
503.947	-396.62
504.152	-443.73
504.358	-2227.51
504.564	-576.84
504.769	498.34
504.975	4448.87
505.181	-116.05
505.386	-1834.3
505.592	-683.34
505.797	711.33
506.003	-2694.44
506.208	1981.07
506.414	-402.77
506.619	62.12
506.825	641.7
507.03	-2180.4
507.236	-1099.08
507.441	516.77
507.647	-746.83
507.852	66.22
508.058	1231.51
508.263	1022.62
508.469	-689.48
508.674	-2237.75
508.879	-535.89
509.085	-60.76
509.29	-1719.61
509.495	-1379.65
509.701	-1103.17
509.906	889.5
510.111	-677.19
510.317	961.18
510.522	191.14
510.727	2073.23
510.933	-748.87
511.138	416.42
511.343	-904.52
511.548	588.45
511.754	-1690.94
511.959	2368.13
512.164	-13.65
512.369	3574.39
512.574	3416.69
512.779	-1576.25
512.985	-634.19
513.19	1000.09
513.395	21.16
513.6	-1140.04
513.805	-286.03
514.01	2079.37
514.215	-353.62
514.42	3101.31
514.625	-630.09
514.83	2529.92
515.035	-251.22
515.24	29.35
515.445	2970.24
515.65	1919.63
515.855	285.35
516.06	-529.74
516.265	545.44
516.47	1540.76
516.675	262.82
516.88	-2471.22
517.085	172.71
517.29	-615.76
517.495	305.83
517.7	1649.3
517.904	-210.26
518.109	682.66
518.314	-548.17
518.519	-220.5
518.724	627.36
518.928	539.3
519.133	-494.93
519.338	178.86
519.543	326.31
519.747	1106.59
519.952	3109.5
520.157	6203.98
520.362	815.77
520.566	2732.67
520.771	-1887.54
520.976	1006.24
521.18	3979.89
521.385	-980.29
521.59	-1054.02
521.794	555.68
521.999	2169.48
522.203	-1088.84
522.408	-470.35
522.612	-1058.12
522.817	610.98
523.022	2228.87
523.226	-281.94
523.431	-812.36
523.635	283.3
523.84	2155.15
524.044	-744.78
524.249	1790.61
524.453	2957.95
524.657	225.96
524.862	6287.95
525.066	-1017.16
525.271	-183.63
525.475	1344.15
525.679	-81.24
525.884	-1930.55
526.088	1428.12
526.292	2890.37
526.497	215.72
526.701	-927.05
526.905	-476.49
527.11	357.03
527.314	-240.98
527.518	3723.89
527.722	-957.77
527.927	1241.75
528.131	-2035
528.335	5655.12
528.539	1903.25
528.744	2906.75
528.948	-1832.25
529.152	-1254.72
529.356	2566.79
529.56	766.62
529.764	123.56
529.968	-60.76
530.173	8032.82
530.377	6488.65
530.581	-1637.69
530.785	1811.09
530.989	-425.29
531.193	191.14
531.397	-1346.88
531.601	381.6
531.805	1710.74
532.009	1628.82
532.213	-58.71
532.417	590.5
532.621	2165.39
532.825	3328.63
533.029	-62.8
533.233	615.07
533.436	647.84
533.64	262.82
533.844	1716.88
534.048	-572.75
534.252	1409.69
534.456	3383.93
534.66	2454.15
534.863	115.37
535.067	205.48
535.271	2196.11
535.475	-496.97
535.679	1311.38
535.882	2994.81
536.086	2065.04
536.29	2282.12
536.493	606.88
536.697	1493.65
536.901	1176.22
537.104	2067.08
537.308	1153.69
537.512	1368.73
537.715	3996.27
537.919	1819.28
538.123	1651.35
538.326	1393.3
538.53	2992.77
538.733	3375.74
538.937	2372.23
539.141	1815.18
539.344	3211.9
539.548	2237.06
539.751	4874.85
539.955	5833.3
540.158	7561.78
540.362	4842.08
540.565	3041.92
540.768	4467.3
540.972	11096.58
541.175	9237.02
541.379	7025.22
541.582	6132.3
541.785	8186.41
541.989	10019.35
542.192	5517.91
542.396	6416.97
542.599	8913.44
542.802	9116.19
543.005	8010.29
543.209	6761.03
543.412	8456.75
543.615	8262.19
543.819	8321.58
544.022	6642.25
544.225	7578.17
544.428	8061.49
544.631	10818.05
544.835	7500.34
545.038	6543.94
545.241	6736.45
545.444	10066.45
545.647	8317.48
545.85	7094.85
546.054	5821.01
546.257	4151.92
546.46	6771.27
546.663	6206.03
546.866	6826.56
547.069	7057.98
547.272	5337.69
547.475	6234.7
547.678	5327.45
547.881	4282.99
548.084	4819.55
548.287	5038.69
548.49	2550.4
548.693	4262.51
548.896	1755.79
549.099	4383.34
549.302	2593.41
549.505	2093.71
549.707	1610.39
549.91	4033.13
550.113	1888.91
550.316	1491.6
550.519	4334.18
550.722	4276.84
550.924	1692.3
551.127	3082.88
551.33	2083.47
551.533	1557.14
551.736	1319.57
551.938	889.5
552.141	2726.53
552.344	531.11
552.546	2863.74
552.749	1497.75
552.952	1661.59
553.154	1548.95
553.357	1802.9
553.56	1542.8
553.762	7027.26
553.965	5886.54
554.168	1933.97
554.37	4000.37
554.573	2658.95
554.775	4182.63
554.978	3240.57
555.18	498.34
555.383	940.7
555.585	5239.39
555.788	2501.25
555.99	1147.55
556.193	1979.02
556.395	3250.81
556.598	1094.3
556.8	1469.08
557.003	1960.59
557.205	5782.1
557.407	1370.77
557.61	2075.28
557.812	2314.89
558.015	4485.73
558.217	1860.24
558.419	2099.85
558.622	3748.47
558.824	2298.5
559.026	946.84
559.228	1548.95
559.431	3215.99
559.633	3160.7
559.835	1675.92
560.037	3187.32
560.24	4670.05
560.442	3887.73
560.644	1172.12
560.846	3291.77
561.048	3629.68
561.25	4448.87
561.453	3000.96
561.655	2024.08
561.857	2421.38
562.059	2101.9
562.261	4498.02
562.463	2839.17
562.665	2914.94
562.867	3758.71
563.069	3699.31
563.271	4803.17
563.473	3527.28
563.675	3111.55
563.877	3164.79
564.079	1940.11
564.281	5192.28
564.483	3773.04
564.685	3099.26
564.887	2323.08
565.089	4620.9
565.291	4471.4
565.493	1661.59
565.694	5503.57
565.896	1823.37
566.098	3981.93
566.3	5149.28
566.502	2658.95
566.704	5694.04
566.905	408.23
567.107	1450.64
567.309	1157.79
567.511	4239.98
567.712	1458.84
567.914	2517.64
568.116	471.72
568.317	4788.83
568.519	2990.72
568.721	141.99
568.922	172.71
569.124	2476.68
569.326	5253.72
569.527	2515.59
569.729	2409.09
569.93	6746.69
570.132	1933.97
570.334	4237.93
570.535	774.81
570.737	1782.42
570.938	6271.56
571.14	2122.38
571.341	3613.3
571.543	7115.33
571.744	2648.71
571.946	4461.16
572.147	1405.59
572.348	5532.25
572.55	4221.55
572.751	4942.43
572.953	2247.3
573.154	4086.38
573.355	6668.87
573.557	9296.41
573.758	3625.59
573.959	3381.88
574.161	5108.32
574.362	5382.74
574.563	7215.68
574.765	5837.39
574.966	6158.92
575.167	2216.58
575.368	5589.59
575.569	3670.64
575.771	5997.14
575.972	2945.66
576.173	3992.17
576.374	5583.45
576.575	4858.46
576.776	1340.05
576.978	2574.98
577.179	3299.96
577.38	4270.7
577.581	2622.08
577.782	3451.51
577.983	5259.87
578.184	5872.21
578.385	3498.61
578.586	4293.23
578.787	2536.07
578.988	4047.47
579.189	1731.22
579.39	2548.36
579.591	3863.15
579.792	2734.72
579.993	4837.98
580.194	4754.02
580.395	5993.04
580.596	4174.44
580.796	4977.25
580.997	2591.36
581.198	3660.4
581.399	5698.13
581.6	6285.9
581.801	2787.97
582.001	6904.39
582.202	2200.2
582.403	1376.92
582.604	7793.2
582.804	3562.1
583.005	3957.36
583.206	756.38
583.407	5358.17
583.607	3158.65
583.808	2740.86
584.009	4901.47
584.209	4784.74
584.41	1516.18
584.61	3207.8
584.811	3185.27
585.012	2443.91
585.212	1815.18
585.413	3234.43
585.613	3342.97
585.814	1933.97
586.014	5067.36
586.215	2359.94
586.415	3187.32
586.616	2036.36
586.816	2624.13
587.017	4751.97
587.217	1698.45
587.418	6253.13
587.618	2544.26
587.819	2513.54
588.019	1112.73
588.219	610.98
588.42	2925.18
588.62	744.1
588.82	955.04
589.021	1401.49
589.221	3322.49
589.421	1536.66
589.622	3871.34
589.822	942.75
590.022	5499.48
590.222	3388.02
590.423	1800.85
590.623	895.65
590.823	2898.56
591.023	2867.84
591.223	602.79
591.423	5755.47
591.624	2638.47
591.824	2226.82
592.024	1118.87
592.224	2146.95
592.424	5454.42
592.624	2421.38
592.824	2855.55
593.024	1868.43
593.224	4999.77
593.424	4743.78
593.624	2417.29
593.824	2232.97
594.024	2634.37
594.224	914.08
594.424	2433.67
594.624	275.11
594.824	1675.92
595.024	1100.44
595.224	2331.27
595.424	688.8
595.624	674.46
595.824	1127.07
596.023	4098.67
596.223	3758.71
596.423	1288.86
596.623	2652.8
596.823	-206.16
597.023	-810.31
597.222	6367.82
597.422	746.14
597.622	-251.22
597.822	924.32
598.021	2206.35
598.221	842.4
598.421	-564.56
598.62	1428.12
598.82	576.16
599.02	4799.07
599.219	4360.81
599.419	2361.99
599.618	565.92
599.818	2605.7
600.018	-806.22
600.217	844.45
600.417	4121.2
600.616	1268.38
600.816	1868.43
601.015	1880.72
601.215	856.73
601.414	733.86
601.614	481.96
601.813	-656.72
602.013	1886.86
602.212	1333.91
602.412	209.58
602.611	2501.25
602.81	1903.25
603.01	3125.88
603.209	1442.45
603.408	-1211.71
603.608	2415.24
603.807	983.71
604.006	6103.63
604.206	-46.42
604.405	1438.36
604.604	1798.8
604.803	1454.74
605.003	262.82
605.202	-87.38
605.401	952.99
605.6	2482.82
605.8	225.96
605.999	268.97
606.198	1587.86
606.397	2042.51
606.596	889.5
606.795	2747.01
606.994	3363.45
607.193	844.45
607.393	3768.95
607.592	3910.26
607.791	1450.64
607.99	3666.55
608.189	3881.58
608.388	4780.64
608.587	3951.21
608.786	2177.67
608.985	598.69
609.184	1981.07
609.382	3476.09
609.581	2663.04
609.78	4899.42
609.979	4239.98
610.178	2835.07
610.377	2431.62
610.576	414.37
610.775	3195.51
610.973	3195.51
611.172	3811.95
611.371	2728.58
611.57	2185.87
611.769	4999.77
611.967	1497.75
612.166	4360.81
612.365	2540.16
612.564	2943.61
612.762	3293.82
612.961	3480.18
613.16	2110.09
613.358	3109.5
613.557	-200.02
613.756	3154.55
613.954	4403.82
614.153	1256.09
614.351	1219.22
614.55	354.98
614.749	3701.36
614.947	1915.53
615.146	733.86
615.344	1921.68
615.543	25.26
615.741	2149
615.94	2859.65
616.138	821.92
616.337	3121.79
616.535	1082.01
616.733	-161.11
616.932	1338.01
617.13	3768.95
617.329	5034.59
617.527	-1082.69
617.725	-1654.08
617.924	-984.39
618.122	354.98
618.32	-863.56
618.519	-1436.99
618.717	2478.72
618.915	2312.84
619.114	1170.07
619.312	-103.76
619.51	383.65
619.708	2253.45
619.906	-621.9
620.105	-666.96
620.303	-390.48
620.501	3846.77
620.699	-1690.94
620.897	936.6
621.095	1843.85
621.293	-1193.28
621.492	1893.01
621.69	-167.25
621.888	1092.25
622.086	3328.63
622.284	1073.82
622.482	504.48
622.68	707.23
622.878	129.7
623.076	-3.41
623.274	-73.04
623.472	375.46
623.67	1487.51
623.868	-2444.59
624.065	742.05
624.263	307.88
624.461	1075.87
624.659	-722.25
624.857	3304.06
625.055	2445.96
625.253	-345.42
625.45	-99.67
625.648	35.5
625.846	131.75
626.044	162.47
626.242	402.08
626.439	2179.72
626.637	649.89
626.835	-154.96
627.032	1940.11
627.23	-1498.43
627.428	3502.71
627.626	1256.09
627.823	537.25
628.021	2906.75
628.218	2071.18
628.416	1350.29
628.614	-1248.58
628.811	-1576.25
629.009	-759.11
629.206	-318.8
629.404	-961.86
629.601	158.38
629.799	-1934.65
629.996	3379.83
630.194	1208.98
630.391	946.84
630.589	-597.32
630.786	1946.25
630.984	311.97
631.181	-2121.01
631.378	-652.62
631.576	1872.53
631.773	-2217.27
631.97	-1398.08
632.168	-1744.19
632.365	92.84
632.562	348.84
632.76	-992.58
632.957	443.04
633.154	12.97
633.352	678.56
633.549	-724.3
633.746	2122.38
633.943	815.77
634.14	-603.47
634.338	2491.01
634.535	-392.53
634.732	-212.31
634.929	2962.05
635.126	783.01
635.323	-21.84
635.52	2243.21
635.717	516.77
635.915	-464.21
636.112	-54.61
636.309	-1844.54
636.506	-423.25
636.703	-2465.07
636.9	-419.15
637.097	5407.32
637.294	172.71
637.491	-1078.6
637.688	2153.1
637.884	-1027.4
638.081	-687.43
638.278	-224.59
638.475	-363.86
638.672	-539.98
638.869	-900.42
639.066	5950.03
639.263	883.36
639.459	713.38
639.656	-2501.94
639.853	-1801.53
640.05	5122.65
640.246	2036.36
640.443	-257.36
640.64	-2991.4
640.837	168.62
641.033	-1912.12
641.23	-128.34
641.427	-265.55
641.623	740
641.82	-748.87
642.017	-1318.21
642.213	-646.48
642.41	-650.57
642.606	1018.52
642.803	1284.76
643	201.38
643.196	-1338.69
643.393	2157.19
643.589	443.04
643.786	-1097.03
643.982	4199.02
644.179	1534.61
644.375	-961.86
644.571	-451.92
644.768	-1514.81
644.964	-208.21
645.161	-404.82
645.357	2759.3
645.553	436.9
645.75	2085.51
645.946	15.02
646.143	-204.11
646.339	422.56
646.535	238.25
646.731	1448.6
646.928	-85.33
647.124	-1813.82
647.32	2232.97
647.516	1987.21
647.713	-1422.66
647.909	-101.72
648.105	-623.95
648.301	-2772.27
648.497	221.86
648.693	-533.84
648.89	-484.69
649.086	-193.87
649.282	-918.86
649.478	-662.86
649.674	215.72
649.87	1929.87
650.066	1204.89
650.262	-1133.89
650.458	1680.02
650.654	-1428.8
650.85	94.89
651.046	-564.56
651.242	-253.27
651.438	25.26
651.634	-1881.4
651.83	-884.04
652.026	570.02
652.222	-347.47
652.417	-445.77
652.613	1192.6
652.809	-1549.63
653.005	-896.33
653.201	2540.16
653.397	-1181
653.592	-306.51
653.788	-1267.01
653.984	1497.75
654.18	4883.04
654.375	-920.9
654.571	-251.22
654.767	-138.58
654.962	-1119.56
655.158	-2538.8
655.354	-705.87
655.549	1145.5
655.745	1069.72
655.941	3807.86
656.136	-1060.17
656.332	-1668.41
656.527	-200.02
656.723	1526.42
656.918	-2125.11
657.114	-773.45
657.309	-367.95
657.505	887.45
657.7	1424.02
657.896	-1262.91
658.091	-1297.73
658.287	-767.31
658.482	-2366.77
658.678	-1166.66
658.873	209.58
659.068	3306.1
659.264	-716.11
659.459	30777.56
659.654	664.22
659.85	2275.98
660.045	-1643.84
660.24	1833.61
660.436	5433.94
660.631	-183.63
660.826	2093.71
661.021	154.28
661.217	2497.16
661.412	-918.86
661.607	-2348.34
661.802	-611.66
661.997	-636.24
662.192	498.34
662.388	-2673.96
662.583	-601.42
662.778	373.41
662.973	-1942.84
663.168	-2749.74
663.363	-1090.88
663.558	4043.37
663.753	1264.28
663.948	-2084.15
664.143	-1903.93
664.338	197.29
664.533	830.11
664.728	-793.93
664.923	-1254.72
665.118	43.69
665.313	-1099.08
665.508	1405.59
665.703	1202.84
665.897	1102.49
666.092	330.41
666.287	520.87
666.482	-738.63
666.677	1792.66
666.872	1487.51
667.066	-1033.54
667.261	-1252.67
667.456	70.31
667.651	1534.61
667.845	1880.72
668.04	350.89
668.235	-1578.3
668.429	1143.45
668.624	72.36
668.819	-728.39
669.013	-1654.08
669.208	651.94
669.402	-1703.23
669.597	43.69
669.792	-986.44
669.986	2767.49
670.181	-2231.6
670.375	230.06
670.57	-1924.41
670.764	-1035.59
670.959	-501.07
671.153	41.64
671.348	-300.37
671.542	2646.66
671.737	-2098.49
671.931	-2827.56
672.125	428.71
672.32	903.84
672.514	1325.72
672.709	-1639.74
672.903	-95.57
673.097	-683.34
673.291	-1465.66
673.486	1585.81
673.68	207.53
673.874	-974.15
674.069	-1029.45
674.263	852.64
674.457	1540.76
674.651	883.36
674.845	-701.77
675.04	3891.82
675.234	-1256.77
675.428	-290.13
675.622	-1477.95
675.816	-1858.87
676.01	-785.74
676.204	-259.41
676.398	-15.7
676.592	-763.21
676.787	-757.07
676.981	-15.7
677.175	39.59
677.369	-3425.57
677.563	-154.96
677.757	-234.83
677.95	-1330.5
678.144	-2796.84
678.338	-1217.86
678.532	791.2
678.726	-2567.47
678.92	2980.48
679.114	21.16
679.308	39.59
679.502	-3693.85
679.695	-2180.4
679.889	-662.86
680.083	-2559.28
680.277	-2420.02
680.471	-355.66
680.664	-1531.2
680.858	467.62
681.052	-187.73
681.245	-1224
681.439	766.62
681.633	-1117.51
681.826	-429.39
682.02	-961.86
682.214	770.72
682.407	-1242.43
682.601	-849.22
682.795	-550.22
682.988	-537.93
683.182	-1125.7
683.375	-501.07
683.569	-865.61
683.762	699.04
683.956	1962.64
684.149	1761.94
684.343	1972.88
684.536	-1348.93
684.73	82.6
684.923	-1867.06
685.116	-1961.27
685.31	2181.77
685.503	832.16
685.696	-200.02
685.89	1125.02
686.083	-1793.34
686.276	-939.33
686.47	78.51
686.663	-716.11
686.856	-310.61
687.05	1321.62
687.243	-707.91
687.436	1288.86
687.629	1829.52
687.822	500.39
688.016	-726.35
688.209	-1023.3
688.402	418.47
688.595	-64.85
688.788	-2301.23
688.981	-1742.14
689.174	2822.78
689.367	-40.28
689.561	-900.42
689.754	-2663.72
689.947	-574.8
690.14	-93.52
690.333	-3296.55
690.526	-888.14
690.719	1544.85
690.912	1893.01
691.104	369.32
691.297	-281.94
691.49	127.66
691.683	-1023.3
691.876	-2977.06
692.069	2644.61
692.262	-109.91
692.455	363.17
692.647	-494.93
692.84	-1672.51
693.033	725.66
693.226	535.2
693.419	-1250.63
693.611	-795.98
693.804	150.18
693.997	633.51
694.189	-431.44
694.382	-1285.44
694.575	3003
694.767	-138.58
694.96	-1443.14
695.153	-449.87
695.345	320.17
695.538	1766.03
695.731	164.52
695.923	-763.21
696.116	78.51
696.308	1643.15
696.501	148.14
696.693	2079.37
696.886	-1035.59
697.078	-2094.39
697.271	486.05
697.463	754.34
697.655	-238.93
697.848	189.1
698.04	-1099.08
698.233	-2374.96
698.425	-605.52
698.617	1327.77
698.81	-1353.02
699.002	-1013.06
699.194	2022.03
699.387	940.7
699.579	-1271.11
699.771	-1991.99
699.963	-2862.38
700.156	-1860.92
700.348	1012.38
700.54	82.6
700.732	-1084.74
700.924	-728.39
701.117	-771.4
701.309	-1082.69
701.501	-2260.27
701.693	4366.95
701.885	-1062.21
702.077	1176.22
702.269	326.31
702.461	1884.81
702.653	187.05
702.845	-621.9
703.037	268.97
703.229	2001.55
703.421	-931.14
703.613	-1350.98
703.805	3431.03
703.997	432.8
704.189	1262.23
704.381	-916.81
704.573	3713.65
704.765	-802.12
704.957	1376.92
705.148	-116.05
705.34	-986.44
705.532	-30.04
705.724	-1125.7
705.916	-2075.96
706.107	1659.54
706.299	391.84
706.491	2046.6
706.682	1626.77
706.874	-724.3
707.066	-351.57
707.258	-1510.72
707.449	-515.41
707.641	5843.54
707.832	55.98
708.024	-777.55
708.216	-367.95
708.407	875.17
708.599	-531.79
708.79	1882.77
708.982	-1606.97
709.173	-499.02
709.365	-1041.73
709.556	-210.26
709.748	-451.92
709.939	164.52
710.131	574.11
710.322	-2297.14
710.514	2683.52
710.705	-820.55
710.896	381.6
711.088	492.2
711.279	578.21
711.47	1968.78
711.662	1229.46
711.853	-1418.56
712.044	-2485.55
712.236	348.84
712.427	144.04
712.618	-2489.65
712.809	-1008.97
713	-605.52
713.192	1395.35
713.383	-881.99
713.574	273.06
713.765	8.87
713.956	-918.86
714.147	2175.63
714.338	-1740.09
714.53	1606.29
714.721	2652.8
714.912	-1346.88
715.103	-2262.32
715.294	610.98
715.485	1008.28
715.676	-2458.93
715.867	-2786.6
716.058	-877.9
716.249	1784.46
716.44	-326.99
716.63	-1690.94
716.821	-251.22
717.012	1450.64
717.203	-1328.45
717.394	-996.68
717.585	-2403.63
717.776	-611.66
717.966	-1023.3
718.157	-1484.09
718.348	445.09
718.539	-13.65
718.73	1139.35
718.92	2226.82
719.111	-959.81
719.302	324.26
719.492	-1101.12
719.683	707.23
719.874	-1260.87
720.064	4219.5
720.255	-2123.06
720.446	-294.22
720.636	1454.74
720.827	1573.52
721.017	520.87
721.208	-744.78
721.398	-961.86
721.589	942.75
721.779	322.21
721.97	-3437.86
722.16	-1518.91
722.351	-2391.34
722.541	-1211.71
722.732	1139.35
722.922	1118.87
723.112	1835.66
723.303	-1801.53
723.493	-1846.59
723.683	1251.99
723.874	2423.43
724.064	338.6
724.254	2163.34
724.445	-1084.74
724.635	918.17
724.825	-2993.45
725.015	-783.69
725.206	-707.91
725.396	1272.47
725.586	-1414.46
725.776	856.73
725.966	3660.4
726.157	1350.29
726.347	2026.12
726.537	-216.4
726.727	1985.16
726.917	-1293.63
727.107	-1074.5
727.297	-2895.15
727.487	1950.35
727.677	-1019.21
727.867	195.24
728.057	-339.28
728.247	864.93
728.437	676.51
728.627	-972.1
728.817	-709.96
729.007	365.22
729.197	608.93
729.387	-750.92
729.576	-458.06
729.766	1657.49
729.956	-548.17
730.146	-1037.64
730.336	-1922.36
730.525	-419.15
730.715	-1178.95
730.905	-60.76
731.095	-761.16
731.284	635.55
731.474	1788.56
731.664	-740.68
731.853	-2510.13
732.043	-1312.07
732.233	-1883.45
732.422	1452.69
732.612	-1418.56
732.802	357.03
732.991	187.05
733.181	-3104.04
733.37	-1639.74
733.56	-609.61
733.749	776.86
733.939	-2151.73
734.128	926.36
734.318	2558.6
734.507	-687.43
734.697	-2526.51
734.886	1589.91
735.076	-1735.99
735.265	1790.61
735.454	307.88
735.644	-1828.15
735.833	-1531.2
736.022	-48.47
736.212	-1170.76
736.401	-695.63
736.59	1223.32
736.779	-646.48
736.969	-2067.77
737.158	137.9
737.347	-1455.42
737.536	-294.22
737.726	-1582.4
737.915	1079.96
738.104	696.99
738.293	-843.08
738.482	-58.71
738.671	-1238.34
738.86	-2473.26
739.049	914.08
739.238	-1314.11
739.427	-853.32
739.616	-1994.04
739.806	-1879.35
739.995	-3128.61
740.183	-2086.2
740.372	-111.96
740.561	-847.18
740.75	-3638.56
740.939	139.94
741.128	238.25
741.317	963.23
741.506	-1215.81
741.695	201.38
741.884	1024.67
742.072	1411.73
742.261	-142.68
742.45	-546.12
742.639	441
742.828	271.01
743.016	-814.41
743.205	-1766.71
743.394	-1549.63
743.582	1393.3
743.771	86.7
743.96	633.51
744.148	-159.06
744.337	-220.5
744.526	342.69
744.714	-1041.73
744.903	3814
745.091	-380.24
745.28	1610.39
745.468	596.64
745.657	256.68
745.845	219.82
746.034	-1148.23
746.222	-413.01
746.411	-128.34
746.599	410.28
746.788	90.79
746.976	-1422.66
747.165	-755.02
747.353	-75.09
747.541	3961.45
747.73	-2581.81
747.918	1131.16
748.106	637.6
748.295	1243.8
748.483	416.42
748.671	-245.07
748.859	-52.56
749.048	1460.88
749.236	-593.23
749.424	-1033.54
749.612	1714.83
749.8	-564.56
749.989	-456.01
750.177	107.18
750.365	653.98
750.553	674.46
750.741	-2278.71
750.929	3719.79
751.117	-527.69
751.305	180.9
751.493	-871.75
751.681	-1840.44
751.869	-517.45
752.057	783.01
752.245	-849.22
752.433	1200.79
752.621	-83.28
752.809	1327.77
752.997	1106.59
753.185	629.41
753.373	-130.39
753.56	-589.13
753.748	955.04
753.936	-142.68
754.124	383.65
754.312	-795.98
754.499	2380.42
754.687	1012.38
754.875	1417.88
755.063	-699.72
755.25	1524.37
755.438	2200.2
755.626	1297.05
755.813	-650.57
756.001	1477.27
756.189	-857.42
756.376	-453.97
756.564	193.19
756.751	1151.64
756.939	-675.15
757.127	2673.28
757.314	74.41
757.502	-1377.6
757.689	2142.86
757.877	1358.49
758.064	1391.25
758.251	-720.2
758.439	1444.5
758.626	2605.7
758.814	-521.55
759.001	2060.94
759.188	2138.76
759.376	-1877.3
759.563	1432.21
759.75	1725.07
759.938	-318.8
760.125	-410.96
760.312	139.94
760.5	-81.24
760.687	1006.24
760.874	-795.98
761.061	1036.95
761.248	-2334
761.436	3949.17
761.623	-83.28
761.81	680.61
761.997	1540.76
762.184	-484.69
762.371	-408.91
762.558	-40.28
762.745	1860.24
762.932	293.54
763.119	934.56
763.306	545.44
763.493	492.2
763.68	748.19
763.867	1917.58
764.054	-1191.24
764.241	-396.62
764.428	1827.47
764.615	193.19
764.802	-9.56
764.989	-933.19
765.176	275.11
765.362	1297.05
765.549	-560.46
765.736	7985.71
765.923	2052.75
766.11	1798.8
766.296	307.88
766.483	-2352.43
766.67	416.42
766.857	1391.25
767.043	-843.08
767.23	783.01
767.417	2140.81
767.603	1229.46
767.79	-216.4
767.976	2652.8
768.163	2220.68
768.35	1020.57
768.536	-114
768.723	-64.85
768.909	1888.91
769.096	2839.17
769.282	182.95
769.469	-447.82
769.655	2968.19
769.842	963.23
770.028	-1383.74
770.214	465.57
770.401	461.48
770.587	-542.03
770.774	-2641.2
770.96	-2868.52
771.146	627.36
771.333	899.74
771.519	-562.51
771.705	510.63
771.891	-1004.87
772.078	5083.74
772.264	1518.23
772.45	-355.66
772.636	314.02
772.822	-443.73
773.009	3486.33
773.195	942.75
773.381	721.57
773.567	1450.64
773.753	-845.13
773.939	-1563.97
774.125	-1959.22
774.311	-64.85
774.497	-1430.85
774.683	-925
774.869	1632.91
775.055	3293.82
775.241	-1240.39
775.427	588.45
775.613	-1060.17
775.799	2073.23
775.985	-1224
776.171	72.36
776.357	105.13
776.543	25.26
776.729	-746.83
776.914	-73.04
777.1	1233.56
777.286	4086.38
777.472	-523.6
777.657	-765.26
777.843	2607.75
778.029	2685.57
778.215	434.85
778.4	-187.73
778.586	2839.17
778.772	1421.97
778.957	754.34
779.143	-1424.7
779.329	-417.1
779.514	-1230.15
779.7	-200.02
779.885	-2411.82
780.071	389.8
780.256	484
780.442	162.47
780.627	-2155.83
780.813	946.84
780.998	1774.22
781.184	713.38
781.369	-1590.59
781.555	1010.33
781.74	-216.4
781.925	1792.66
782.111	-1008.97
782.296	-316.75
782.481	533.15
782.667	-243.03
782.852	1149.59
783.037	-480.59
783.223	-437.58
783.408	-372.05
783.593	998.04
783.778	-1125.7
783.963	264.87
784.149	838.3
784.334	-537.93
784.519	-200.02
784.704	-1666.36
784.889	92.84
785.074	-1340.74
785.259	-599.37
785.444	2349.7
785.629	-1676.6
785.814	-2161.97
785.999	-695.63
786.184	2906.75
786.369	-963.91
786.554	-2499.89
786.739	1258.14
786.924	486.05
787.109	-99.67
787.294	1477.27
787.479	1157.79
787.664	12.97
787.849	1258.14
788.034	631.46
788.218	477.86
788.403	217.77
788.588	1053.34
788.773	533.15
788.957	-1097.03
789.142	1487.51
789.327	254.63
789.512	-695.63
789.696	2986.62
789.881	3592.82
790.066	-290.13
790.25	2888.32
790.435	-56.66
790.619	1809.04
790.804	785.05
790.989	268.97
791.173	3109.5
791.358	963.23
791.542	-820.55
791.727	-681.29
791.911	-599.37
792.096	-1041.73
792.28	-791.88
792.465	-222.55
792.649	-853.32
792.833	828.06
793.018	-650.57
793.202	830.11
793.386	2624.13
793.571	1534.61
793.755	281.25
793.939	-849.22
794.124	-89.43
794.308	457.38
794.492	-623.95
794.676	-961.86
794.861	-99.67
795.045	1129.11
795.229	-2043.19
795.413	1112.73
795.597	-642.38
795.781	256.68
795.966	2658.95
796.15	98.99
796.334	4264.55
796.518	2460.29
796.702	-957.77
796.886	797.34
797.07	2431.62
797.254	1454.74
797.438	-396.62
797.622	-566.6
797.806	395.94
797.99	1393.3
798.174	436.9
798.358	2357.89
798.541	2249.35
798.725	2933.37
798.909	86.7
799.093	1100.44
799.277	524.96
799.461	1858.19
799.644	-2721.07
799.828	475.81
800.012	2636.42
800.196	354.98
800.379	246.44
800.563	-1224
800.747	2163.34
800.93	-19.8
801.114	-290.13
801.298	-841.03
801.481	2595.46
801.665	2292.36
801.848	-1668.41
802.032	-294.22
802.216	3762.8
802.399	-68.95
802.583	-1332.54
802.766	-2047.29
802.95	766.62
803.133	2105.99
803.317	-1305.92
803.5	-1688.89
803.683	266.92
803.867	-1404.22
804.05	1421.97
804.233	2491.01
804.417	3240.57
804.6	-122.2
804.783	506.53
804.967	2210.44
805.15	967.32
805.333	498.34
805.517	1073.82
805.7	-1232.19
805.883	-64.85
806.066	1804.94
806.249	1991.31
806.432	-1406.27
806.616	561.83
806.799	-1353.02
806.982	-597.32
807.165	742.05
807.348	416.42
807.531	-1140.04
807.714	-529.74
807.897	549.54
808.08	1127.07
808.263	1684.11
808.446	1348.25
808.629	400.04
808.812	-740.68
808.995	176.81
809.178	2296.46
809.361	1630.87
809.544	1649.3
809.726	3136.12
809.909	1927.82
810.092	1368.73
810.275	1809.04
810.458	3785.33
810.64	1800.85
810.823	1514.13
811.006	658.08
811.189	3009.15
811.371	-413.01
811.554	402.08
811.737	1901.2
811.919	2083.47
812.102	-435.53
812.285	-1520.96
812.467	971.42
812.65	-79.19
812.832	-929.1
813.015	2218.63
813.197	1929.87
813.38	1897.1
813.562	2792.06
813.745	-1217.86
813.927	-1602.88
814.11	1827.47
814.292	-159.06
814.475	-1031.49
814.657	-222.55
814.839	1133.21
815.022	-1025.35
815.204	3531.38
815.386	2574.98
815.569	2042.51
815.751	-1944.89
815.933	1897.1
816.116	1628.82
816.298	1577.62
816.48	-52.56
816.662	-548.17
816.844	508.58
817.027	217.77
817.209	-787.79
817.391	-1183.04
817.573	-1.37
817.755	-23.89
817.937	699.04
818.119	-648.52
818.301	-630.09
818.483	-60.76
818.665	-599.37
818.847	1319.57
819.029	500.39
819.211	-1291.59
819.393	146.09
819.575	3015.29
819.757	2275.98
819.939	983.71
820.121	133.8
820.303	563.87
820.485	3283.58
820.666	2867.84
820.848	3033.72
821.03	217.77
821.212	1852.05
821.394	-1709.37
821.575	883.36
821.757	2564.74
821.939	635.55
822.121	795.29
822.302	3215.99
822.484	1811.09
822.666	-2168.12
822.847	-453.97
823.029	-2721.07
823.21	1481.36
823.392	-1926.46
823.573	-202.07
823.755	-1391.94
823.937	-1097.03
824.118	-1031.49
824.3	5020.25
824.481	-836.94
824.662	-607.56
824.844	45.74
825.025	1188.5
825.207	-1613.12
825.388	43.69
825.569	-1322.31
825.751	-736.59
825.932	2624.13
826.113	-1830.2
826.295	1340.05
826.476	608.93
826.657	-58.71
826.839	-398.67
827.02	750.24
827.201	3443.32
827.382	-140.63
827.563	1245.85
827.744	-521.55
827.926	604.83
828.107	2005.64
828.288	-1404.22
828.469	529.06
828.65	1274.52
828.831	-2133.3
829.012	-15.7
829.193	2194.06
829.374	-705.87
829.555	2087.56
829.736	5571.16
829.917	3140.22
830.098	1602.19
830.279	-2110.77
830.46	-849.22
830.641	111.27
830.822	105.13
831.002	2003.6
831.183	-707.91
831.364	1493.65
831.545	1364.63
831.726	234.15
831.906	35.5
832.087	1251.99
832.268	1024.67
832.449	2122.38
832.629	-1807.67
832.81	-619.85
832.991	-1054.02
833.171	928.41
833.352	610.98
833.532	2044.56
833.713	-648.52
833.894	-34.13
834.074	-2086.2
834.255	-906.57
834.435	-838.98
834.616	-640.33
834.796	-253.27
834.977	1223.32
835.157	3363.45
835.338	-914.76
835.518	-1875.26
835.698	404.13
835.879	-1011.01
836.059	314.02
836.239	334.5
836.42	131.75
836.6	653.98
836.78	-2135.35
836.961	-867.66
837.141	1430.16
837.321	-1154.37
837.501	3578.48
837.682	-781.64
837.862	-204.11
838.042	5919.31
838.222	-798.03
838.402	-312.66
838.582	-195.92
838.763	629.41
838.943	-449.87
839.123	2126.47
839.303	410.28
839.483	1530.52
839.663	-2719.02
839.843	12825.06
840.023	1794.7
840.203	1581.71
840.383	-443.73
840.563	-703.82
840.742	66.22
840.922	-908.62
841.102	969.37
841.282	-58.71
841.462	-66.9
841.642	-378.19
841.822	-1547.58
842.001	-2438.45
842.181	772.77
842.361	957.08
842.541	1684.11
842.72	797.34
842.9	-304.46
843.08	432.8
843.259	-390.48
843.439	-236.88
843.619	-927.05
843.798	121.51
843.978	1188.5
844.157	-716.11
844.337	1135.26
844.517	-789.83
844.696	2417.29
844.876	1231.51
845.055	-1289.54
845.235	1098.39
845.414	352.93
845.593	-1371.46
845.773	-703.82
845.952	-2612.53
846.132	-1813.82
846.311	-1535.29
846.49	1028.76
846.67	1026.72
846.849	-730.44
847.028	-1412.42
847.208	1059.48
847.387	-980.29
847.566	2824.83
847.745	-1238.34
847.924	975.52
848.104	887.45
848.283	588.45
848.462	1739.41
848.641	1966.73
848.82	90.79
848.999	2398.85
849.178	-460.11
849.358	1424.02
849.537	70.31
849.716	-810.31
849.895	-1465.66
850.074	2056.84
850.253	2177.67
850.432	455.33
850.61	-97.62
850.789	-669
850.968	2116.23
851.147	2124.43
851.326	-963.91
851.505	19.11
851.684	604.83
851.863	1944.21
852.041	584.35
852.22	-245.07
852.399	-744.78
852.578	885.41
852.756	-1865.02
852.935	-537.93
853.114	1786.51
853.293	-1449.28
853.471	3205.75
853.65	580.26
853.828	-562.51
854.007	-1246.53
854.186	561.83
854.364	1858.19
854.543	660.13
854.721	-652.62
854.9	1110.68
855.078	2275.98
855.257	-400.72
855.435	-2956.58
855.614	330.41
855.792	-539.98
855.971	-521.55
856.149	-1932.6
856.327	955.04
856.506	185
856.684	-759.11
856.862	-1103.17
857.041	-3345.7
857.219	1651.35
857.397	-994.63
857.576	-732.49
857.754	-699.72
857.932	1256.09
858.11	-470.35
858.288	-558.41
858.467	-2207.03
858.645	-2032.95
858.823	-445.77
859.001	465.57
859.179	-1582.4
859.357	-1043.78
859.535	924.32
859.713	1497.75
859.891	938.65
860.069	3496.57
860.247	-744.78
860.425	-2417.97
860.603	766.62
860.781	1938.06
860.959	357.03
861.137	-2506.03
861.315	-1420.61
861.493	139.94
861.67	1518.23
861.848	1321.62
862.026	-863.56
862.204	-986.44
862.382	-601.42
862.559	-261.46
862.737	844.45
862.915	1544.85
863.093	-570.7
863.27	1784.46
863.448	1569.43
863.626	86.7
863.803	-277.84
863.981	-1330.5
864.158	-2448.69
864.336	-1137.99
864.514	-1441.09
864.691	-1924.41
864.869	-1049.93
865.046	-1635.64
865.224	51.88
865.401	1354.39
865.578	-1074.5
865.756	2380.42
865.933	-2442.54
866.111	1559.19
866.288	-1248.58
866.465	-652.62
866.643	-1629.5
866.82	-1162.56
866.997	-922.95
867.175	-187.73
867.352	-597.32
867.529	-2956.58
867.706	-1230.15
867.884	-19.8
868.061	-365.9
868.238	-904.52
868.415	-1617.21
868.592	-1187.14
868.77	-1105.22
868.947	1045.15
869.124	-763.21
869.301	-2274.61
869.478	109.23
869.655	-3101.99
869.832	-85.33
870.009	2867.84
870.186	2343.56
870.363	23.21
870.54	-23.89
870.717	-585.04
870.894	-267.6
871.071	684.7
871.247	-1811.77
871.424	-1025.35
871.601	-253.27
871.778	-961.86
871.955	-437.58
872.132	193.19
872.308	45.74
872.485	-224.59
872.662	-773.45
872.839	1847.95
873.015	-894.28
873.192	438.95
873.369	357.03
873.545	-603.47
873.722	58.03
873.898	-81.24
874.075	-681.29
874.252	131.75
874.428	-413.01
874.605	-30.04
874.781	-2825.51
874.958	-1414.46
875.134	764.58
875.311	492.2
875.487	508.58
875.663	2413.19
875.84	123.56
876.016	1079.96
876.193	615.07
876.369	-1183.04
876.545	-1078.6
876.722	-1185.09
876.898	-73.04
877.074	314.02
877.25	897.69
877.427	5780.05
877.603	-509.26
877.779	-648.52
877.955	-169.3
878.132	1983.12
878.308	1579.67
878.484	3234.43
878.66	-1498.43
878.836	191.14
879.012	-120.15
879.188	432.8
879.364	49.83
879.54	-623.95
879.716	-1598.78
879.892	90.79
880.068	1630.87
880.244	3594.87
880.42	-1019.21
880.596	-363.86
880.772	-738.63
880.948	-906.57
881.124	934.56
881.3	4702.82
881.475	-25.94
881.651	-163.15
881.827	-435.53
882.003	-120.15
882.178	-2131.25
882.354	-404.82
882.53	-1076.55
882.706	-46.42
882.881	510.63
883.057	-1553.73
883.233	-134.48
883.408	1823.37
883.584	-804.17
883.759	-1690.94
883.935	-1824.06
884.111	-2006.33
884.286	-804.17
884.462	-2536.75
884.637	-769.35
884.813	-1738.04
884.988	-404.82
885.164	3134.07
885.339	-1369.41
885.514	1446.55
885.69	-1158.47
885.865	-2063.67
886.04	653.98
886.216	-773.45
886.391	793.25
886.566	-204.11
886.742	-2037.05
886.917	-132.44
887.092	2204.3
887.267	-2053.43
887.443	-2497.84
887.618	-1264.96
887.793	-1035.59
887.968	150.18
888.143	-1885.5
888.318	-281.94
888.494	803.49
888.669	-236.88
888.844	-185.68
889.019	-697.67
889.194	-681.29
889.369	-1181
889.544	-912.71
889.719	1045.15
889.894	2341.51
890.069	250.53
890.243	850.59
890.418	-767.31
890.593	-1262.91
890.768	-286.03
890.943	1798.8
891.118	-707.91
891.293	-126.29
891.467	-1385.79
891.642	2888.32
891.817	-830.79
891.992	178.86
892.166	-1350.98
892.341	1215.13
892.516	-204.11
892.69	-7.51
892.865	-2223.41
893.04	-458.06
893.214	1065.63
893.389	418.47
893.563	2898.56
893.738	3048.06
893.912	-892.23
894.087	45.74
894.261	1352.34
894.436	-1281.35
894.61	2454.15
894.785	-99.67
894.959	-238.93
895.134	1763.98
895.308	-1572.16
895.482	891.55
895.657	-1477.95
895.831	-1187.14
896.005	5651.03
896.18	-761.16
896.354	-73.04
896.528	-2112.82
896.702	-50.52
896.877	1823.37
897.051	-2039.09
897.225	254.63
897.399	465.57
897.573	-869.7
897.747	228.01
897.922	-144.72
898.096	1866.38
898.27	-1639.74
898.444	-1006.92
898.618	320.17
898.792	-122.2
898.966	160.42
899.14	553.63
899.314	660.13
899.488	1909.39
899.662	119.46
899.835	246.44
900.009	221.86
900.183	-1518.91
900.357	3478.13
900.531	-939.33
900.705	-957.77
900.878	-1822.01
901.052	-976.2
901.226	1120.92
901.4	469.67
901.573	-1039.69
901.747	-1502.53
901.921	-308.56
902.095	178.86
902.268	1634.96
902.442	-1434.94
902.615	-2168.12
902.789	1153.69
902.963	5810.77
903.136	-390.48
903.31	2239.11
903.483	-1451.33
903.657	1602.19
903.83	148.14
904.004	-2706.73
904.177	193.19
904.35	-675.15
904.524	-2190.64
904.697	66.22
904.871	207.53
905.044	1131.16
905.217	4723.3
905.391	3289.72
905.564	1004.19
905.737	438.95
905.91	-376.14
906.084	-2217.27
906.257	492.2
906.43	-2338.1
906.603	90.79
906.776	-3321.12
906.949	-1293.63
907.123	-1408.32
907.296	-449.87
907.469	1936.01
907.642	-740.68
907.815	1450.64
907.988	-161.11
908.161	-1017.16
908.334	-1275.2
908.507	823.97
908.68	549.54
908.853	92.84
909.026	-818.5
909.199	-480.59
909.371	2321.03
909.544	1606.29
909.717	-87.38
909.89	-1291.59
910.063	-1353.02
910.236	-97.62
910.408	963.23
910.581	-2209.08
910.754	-2260.27
910.927	-2907.43
911.099	88.75
911.272	533.15
911.445	37.55
911.617	-609.61
911.79	1727.12
911.962	-382.29
912.135	-970.05
912.308	55.98
912.48	-1813.82
912.653	-1326.4
912.825	-974.15
912.998	-798.03
913.17	1274.52
913.343	1665.68
913.515	-744.78
913.687	-1764.67
913.86	121.51
914.032	1528.47
914.205	-476.49
914.377	-210.26
914.549	-2981.16
914.721	533.15
914.894	-1570.11
915.066	-447.82
915.238	-1727.8
915.41	2024.08
915.583	361.13
915.755	-1740.09
915.927	-52.56
916.099	1047.19
916.271	-818.5
916.443	-1940.79
916.616	-2084.15
916.788	6113.87
916.96	2296.46
917.132	-3724.57
917.304	-265.55
917.476	1741.46
917.648	176.81
917.82	-2995.5
917.992	959.13
918.164	1034.91
918.335	314.02
918.507	1155.74
918.679	-2514.22
918.851	1528.47
919.023	-546.12
919.195	-87.38
919.366	-2202.93
919.538	-2753.84
919.71	-1686.84
919.882	-1430.85
920.053	-1895.74
920.225	-1172.8
920.397	1475.22
920.568	-1822.01
920.74	-1457.47
920.912	-1285.44
921.083	-1697.08
921.255	-2061.62
921.426	-2153.78
921.598	-114
921.77	-941.38
921.941	-1957.18
922.113	-1807.67
922.284	1145.5
922.455	-1154.37
922.627	-2346.29
922.798	-2075.96
922.97	-1639.74
923.141	-1416.51
923.312	-3415.33
923.484	549.54
923.655	-2577.71
923.826	750.24
923.998	-1174.85
924.169	653.98
924.34	-1746.23
924.511	-238.93
924.683	-283.98
924.854	-1271.11
925.025	-306.51
925.196	1106.59
925.367	789.15
925.538	58.03
925.709	-603.47
925.881	279.21
926.052	-1449.28
926.223	-765.26
926.394	875.17
926.565	-836.94
926.736	-3538.21
926.907	-1756.47
927.078	125.61
927.248	2062.99
927.419	676.51
927.59	-2811.18
927.761	873.12
927.932	817.82
928.103	-576.84
928.274	-1414.46
928.444	-503.12
928.615	-1181
928.786	-1262.91
928.957	-2153.78
929.127	-1344.83
929.298	4.78
929.469	-1373.5
929.639	-214.35
929.81	-382.29
929.981	-161.11
930.151	176.81
930.322	3197.56
930.492	602.79
930.663	3437.17
930.833	-1670.46
931.004	-470.35
931.174	293.54
931.345	-5.46
931.515	-1735.99
931.686	-443.73
931.856	1960.59
932.027	-2084.15
932.197	936.6
932.367	-1709.37
932.538	1331.86
932.708	-1174.85
932.878	-144.72
933.048	-822.6
933.219	-1273.15
933.389	1739.41
933.559	-1701.18
933.729	-1930.55
933.9	256.68
934.07	-2008.37
934.24	-2432.3
934.41	-97.62
934.58	-169.3
934.75	729.76
934.92	-3058.98
935.09	-21.84
935.26	-1199.43
935.43	2298.5
935.6	-628.04
935.77	570.02
935.94	318.12
936.11	-1248.58
936.28	-1645.88
936.45	961.18
936.62	-62.8
936.79	469.67
936.96	-652.62
937.129	-853.32
937.299	53.93
937.469	-50.52
937.639	-27.99
937.808	-789.83
937.978	-2299.19
938.148	1256.09
938.317	-109.91
938.487	254.63
938.657	-1594.68
938.826	-1553.73
938.996	-687.43
939.166	-3755.29
939.335	-2161.97
939.505	-103.76
939.674	-1320.26
939.844	-2024.76
940.013	164.52
940.183	-2231.6
940.352	-1973.56
940.522	-677.19
940.691	-1094.98
940.86	641.7
941.03	-953.67
941.199	-36.18
941.368	238.25
941.538	1227.42
941.707	-1932.6
941.876	-738.63
942.046	959.13
942.215	-56.66
942.384	-2188.6
942.553	-456.01
942.722	-818.5
942.892	1571.47
943.061	-2893.1
943.23	338.6
943.399	3676.79
943.568	-730.44
943.737	1714.83
943.906	-109.91
944.075	-1635.64
944.244	1299.09
944.413	-832.84
944.582	-2596.14
944.751	-77.14
944.92	-617.8
945.089	576.16
945.258	-931.14
945.427	-535.89
945.596	-703.82
945.764	-601.42
945.933	-1197.38
946.102	1108.63
946.271	-728.39
946.44	-822.6
946.608	-1469.76
946.777	-1060.17
946.946	-906.57
947.114	2013.84
947.283	-896.33
947.452	-1860.92
947.62	-1312.07
947.789	967.32
947.958	-1264.96
948.126	185
948.295	295.59
948.463	-1238.34
948.632	-1111.36
948.8	-701.77
948.969	-1879.35
949.137	-802.12
949.305	-1822.01
949.474	694.94
949.642	670.37
949.811	373.41
949.979	-523.6
950.147	-2239.8
950.316	-2067.77
950.484	-2278.71
950.652	-1420.61
950.82	1135.26
950.989	-2950.44
951.157	-1633.6
951.325	-2153.78
951.493	1503.89
951.661	613.03
951.83	625.31
951.998	-2706.73
952.166	-718.15
952.334	-1895.74
952.502	2908.8
952.67	934.56
952.838	537.25
953.006	2464.39
953.174	144.04
953.342	125.61
953.51	-310.61
953.678	-662.86
953.846	-2647.34
954.014	-439.63
954.181	2263.69
954.349	-1516.86
954.517	-2014.52
954.685	-1951.03
954.853	-1178.95
955.02	-1744.19
955.188	-2295.09
955.356	-1396.03
955.524	1079.96
955.691	-572.75
955.859	-1811.77
956.027	-634.19
956.194	2779.78
956.362	-1011.01
956.529	879.26
956.697	-1215.81
956.865	283.3
957.032	1493.65
957.2	-2440.5
957.367	-2280.75
957.535	316.07
957.702	869.02
957.87	-2096.44
958.037	129.7
958.204	-1181
958.372	762.53
958.539	121.51
958.706	-443.73
958.874	3101.31
959.041	408.23
959.208	-2057.53
959.376	-1465.66
959.543	983.71
959.71	-150.87
959.877	1176.22
960.044	-490.83
960.212	2542.21
960.379	3175.03
960.546	185
960.713	-2649.39
960.88	-619.85
961.047	-171.35
961.214	26808.59
961.381	2425.48
961.548	-974.15
961.715	-339.28
961.882	-2399.54
962.049	-830.79
962.216	-826.7
962.383	-1477.95
962.55	-984.39
962.717	1512.08
962.883	946.84
963.05	2505.35
963.217	477.86
963.384	-1287.49
963.551	-451.92
963.717	-1402.18
963.884	-253.27
964.051	428.71
964.218	1352.34
964.384	5659.22
964.551	-2051.38
964.717	-2716.97
964.884	-744.78
965.051	-1475.9
965.217	-2231.6
965.384	-2768.17
965.55	977.56
965.717	742.05
965.883	25.26
966.05	-1412.42
966.216	2058.89
966.383	983.71
966.549	-97.62
966.716	-761.16
966.882	-1860.92
967.048	-1396.03
967.215	-2307.38
967.381	-1336.64
967.547	1755.79
967.713	2103.95
967.88	391.84
968.046	-2542.89
968.212	-859.46
968.378	944.8
968.545	-2438.45
968.711	955.04
968.877	-693.58
969.043	-191.83
969.209	-2184.5
969.375	1065.63
969.541	2044.56
969.707	2810.5
969.873	985.76
970.039	-759.11
970.205	1688.21
970.371	4803.17
970.537	1428.12
970.703	205.48
970.869	-976.2
971.035	1587.86
971.201	8.87
971.367	-1695.04
971.532	-503.12
971.698	-593.23
971.864	1311.38
972.03	-2055.48
972.195	-1412.42
972.361	2003.6
972.527	-1389.89
972.693	3211.9
972.858	1548.95
973.024	-1852.73
973.19	-570.7
973.355	348.84
973.521	543.39
973.686	1333.91
973.852	-2635.05
974.017	4295.27
974.183	-2272.56
974.348	709.28
974.514	-2411.82
974.679	-367.95
974.845	-1482.05
975.01	-499.02
975.175	-2999.59
975.341	17551.77
975.506	-390.48
975.672	520.87
975.837	4033.13
976.002	-220.5
976.167	-933.19
976.333	4809.31
976.498	-1037.64
976.663	-1856.82
976.828	791.2
976.993	-1314.11
977.159	244.39
977.324	443.04
977.489	3132.03
977.654	-89.43
977.819	-1187.14
977.984	-623.95
978.149	2660.99
978.314	1245.85
978.479	-1234.24
978.644	-2041.14
978.809	-812.36
978.974	-1695.04
979.139	2022.03
979.304	86.7
979.469	-841.03
979.633	-771.4
979.798	-595.28
979.963	-1684.8
980.128	2835.07
980.293	-1985.85
980.457	-1617.21
980.622	-2471.22
980.787	-1846.59
980.951	-310.61
981.116	-400.72
981.281	-1768.76
981.445	-331.09
981.61	703.14
981.775	-1846.59
981.939	-2639.15
982.104	1938.06
982.268	1260.18
982.433	1364.63
982.597	-1670.46
982.762	2689.67
982.926	803.49
983.091	-720.2
983.255	-2635.05
983.419	-1752.38
983.584	1567.38
983.748	-73.04
983.912	-189.78
984.077	2050.7
984.241	2157.19
984.405	-1953.08
984.57	2013.84
984.734	-652.62
984.898	-204.11
985.062	-1185.09
985.226	-1353.02
985.39	2615.94
985.555	-17.75
985.719	2052.75
985.883	141.99
986.047	-1355.07
986.211	576.16
986.375	-54.61
986.539	-1377.6
986.703	-1285.44
986.867	-111.96
987.031	572.07
987.195	-1193.28
987.359	-1705.28
987.523	221.86
987.686	-2178.36
987.85	-1809.72
988.014	465.57
988.178	-1111.36
988.342	823.97
988.506	416.42
988.669	-556.36
988.833	131.75
988.997	631.46
989.16	-458.06
989.324	-191.83
989.488	2888.32
989.651	152.23
989.815	3314.3
989.979	-1017.16
990.142	127.66
990.306	-640.33
990.469	1626.77
990.633	1067.67
990.796	2284.17
990.96	-884.04
991.123	668.32
991.286	1768.08
991.45	887.45
991.613	-1756.47
991.777	-2153.78
991.94	-2188.6
992.103	492.2
992.267	2765.44
992.43	-986.44
992.593	287.4
992.756	225.96
992.92	516.77
993.083	615.07
993.246	-361.81
993.409	-2848.04
993.572	-2227.51
993.735	-580.94
993.899	309.93
994.062	-617.8
994.225	-1080.64
994.388	180.9
994.551	2505.35
994.714	-413.01
994.877	-404.82
995.04	-1606.97
995.203	-1547.58
995.366	1012.38
995.528	-1414.46
995.691	1043.1
995.854	-1602.88
996.017	-783.69
996.18	-2725.16
996.343	-535.89
996.505	1897.1
996.668	606.88
996.831	-611.66
996.994	-558.41
997.156	-431.44
997.319	-1244.48
997.482	1598.1
997.644	-1740.09
997.807	1180.31
997.97	-2030.9
998.132	-1299.78
998.295	1372.82
998.457	289.45
998.62	-1201.47
998.782	-1623.36
998.945	92.84
999.107	-85.33
999.27	-171.35
999.432	-779.59
999.594	598.69
999.757	1917.58
999.919	252.58
1000.081	-2260.27
1000.244	-396.62
1000.406	-118.1
1000.568	-220.5
1000.731	1835.66
1000.893	1591.95
1001.055	1510.04
1001.217	-730.44
1001.379	-2348.34
1001.542	-1357.12
1001.704	3144.31
1001.866	-843.08
1002.028	942.75
1002.19	336.55
1002.352	-1238.34
1002.514	-1477.95
1002.676	5329.5
1002.838	1720.98
1003	-570.7
1003.162	-1312.07
1003.324	2192.01
1003.486	1258.14
1003.648	-1322.31
1003.809	-755.02
1003.971	1006.24
1004.133	-77.14
1004.295	-281.94
1004.457	-566.6
1004.618	578.21
1004.78	107.18
1004.942	3684.98
1005.104	-118.1
1005.265	-1457.47
1005.427	713.38
1005.589	-795.98
1005.75	287.4
1005.912	1944.21
1006.073	2024.08
1006.235	234.15
1006.396	-146.77
1006.558	-306.51
1006.72	-189.78
1006.881	420.52
1007.042	-1432.9
1007.204	-1897.78
1007.365	-1324.35
1007.527	1028.76
1007.688	3025.53
1007.849	-56.66
1008.011	-193.87
1008.172	228.01
1008.333	723.62
1008.495	-324.94
1008.656	-2041.14
1008.817	1174.17
1008.978	2669.19
1009.139	-578.89
1009.301	641.7
1009.462	-2725.16
1009.623	920.22
1009.784	-1277.25
1009.945	273.06
1010.106	924.32
1010.267	236.2
1010.428	-1486.14
1010.589	-2026.81
1010.75	-5.46
1010.911	-1246.53
1011.072	-2403.63
1011.233	1014.43
1011.394	-552.27
1011.555	10.92
1011.716	588.45
1011.877	-1365.31
1012.037	275.11
1012.198	-1285.44
1012.359	498.34
1012.52	-1510.72
1012.68	-421.2
1012.841	137.9
1013.002	242.34
1013.163	-896.33
1013.323	291.49
1013.484	-1785.15
1013.644	-1471.81
1013.805	647.84
1013.966	-597.32
1014.126	2708.1
1014.287	-687.43
1014.447	-310.61
1014.608	1251.99
1014.768	-1221.95
1014.929	1143.45
1015.089	-1303.87
1015.249	154.28
1015.41	-19.8
1015.57	977.56
1015.731	-2254.13
1015.891	-861.51
1016.051	557.73
1016.211	-582.99
1016.372	1409.69
1016.532	-853.32
1016.692	-243.03
1016.852	610.98
1017.013	-714.06
1017.173	-5.46
1017.333	-1221.95
1017.493	-968.01
1017.653	-1381.7
1017.813	-2032.95
1017.973	-228.69
1018.133	-1609.02
1018.293	-1944.89
1018.453	-308.56
1018.613	-2127.16
1018.773	2163.34
1018.933	-30.04
1019.093	1041.05
1019.253	43.69
1019.413	1092.25
1019.573	-2196.79
1019.733	-392.53
1019.892	1923.73
1020.052	-707.91
1020.212	590.5
1020.372	72.36
1020.531	1598.1
1020.691	-265.55
1020.851	340.65
1021.01	164.52
1021.17	230.06
1021.33	-582.99
1021.489	-1781.05
1021.649	12.97
1021.808	-1.37
1021.968	275.11
1022.127	-2790.7
1022.287	1995.4
1022.446	-673.1
1022.606	553.63
1022.765	-1549.63
1022.925	2777.73
1023.084	-718.15
1023.244	1749.65
1023.403	-515.41
1023.562	-1017.16
1023.722	-609.61
1023.881	-669
1024.04	-353.62
1024.199	707.23
1024.359	-27.99
1024.518	-2141.49
1024.677	-927.05
1024.836	-863.56
1024.995	811.68
1025.154	-955.72
1025.313	-200.02
1025.473	-1269.06
1025.632	-1373.5
1025.791	725.66
1025.95	-1416.51
1026.109	-804.17
1026.268	225.96
1026.427	1231.51
1026.586	1780.37
1026.744	78.51
1026.903	6373.96
1027.062	-437.58
1027.221	1008.28
1027.38	234.15
1027.539	1192.6
1027.698	4854.37
1027.856	-1432.9
1028.015	817.82
1028.174	443.04
1028.333	434.85
1028.491	3988.08
1028.65	1663.63
1028.808	3779.19
1028.967	907.93
1029.126	623.27
1029.284	-1953.08
1029.443	821.92
1029.601	-687.43
1029.76	-1506.62
1029.918	-1322.31
1030.077	660.13
1030.235	2292.36
1030.394	-814.41
1030.552	1211.03
1030.711	2773.63
1030.869	-535.89
1031.027	-888.14
1031.186	-2553.13
1031.344	-1279.3
1031.502	-343.38
1031.661	1424.02
1031.819	2249.35
1031.977	1096.35
1032.135	-1518.91
1032.293	-1004.87
1032.452	-1557.82
1032.61	3889.78
1032.768	-1746.23
1032.926	254.63
1033.084	3285.62
1033.242	-742.73
1033.4	-1631.55
1033.558	801.44
1033.716	-499.02
1033.874	-1090.88
1034.032	-116.05
1034.19	-322.9
1034.348	2378.37
1034.506	-1967.42
1034.664	598.69
1034.822	-1828.15
1034.979	2443.91
1035.137	778.91
1035.295	-378.19
