Data from Quartz 10 sec exposure (900 SPF and 750LPF in Output, 700SpF Input)_USBC44471_14-42-51-850.txt Node
Date: Wed Jul 29 14:42:51 MDT 2020
User: Montana Instruments
Spectrometer: USBC4447
Scans to average: 1
Trigger mode: 4
Integration Time (sec): 1.000000E1
Electric dark correction enabled: true
Boxcar width: 0
XAxis mode: Wavelengths
Number of Pixels in Spectrum: 3648
>>>>>Begin Spectral Data<<<<<
344.991	-5451.69
345.205	-5451.69
345.419	-5451.69
345.633	-5500.84
345.847	-5425.07
346.061	-432.12
346.275	743.41
346.489	-1189.87
346.703	-180.22
346.917	-1755.11
347.131	1288.17
347.345	-880.63
347.559	-782.32
347.773	1517.54
347.986	-124.93
348.2	3008.47
348.414	-1212.4
348.628	-792.56
348.842	-1146.86
349.056	-1212.4
349.269	368.63
349.483	1376.24
349.697	1404.91
349.911	1345.52
350.125	-1089.52
350.338	350.2
350.552	778.23
350.766	-677.88
350.979	-1570.79
351.193	-550.9
351.407	5472.17
351.621	-299
351.834	-1392.62
352.048	2514.91
352.262	-389.11
352.475	3616.71
352.689	1163.25
352.902	1550.31
353.116	-51.2
353.33	-1640.42
353.543	-1191.92
353.757	210.94
353.971	223.23
354.184	284.67
354.398	-708.6
354.611	763.89
354.825	2830.29
355.038	1226.73
355.252	-243.71
355.465	-516.09
355.679	-1890.28
355.892	825.33
356.106	1325.04
356.319	7796.62
356.533	-671.73
356.746	-290.81
356.96	-860.15
357.173	-1654.76
357.386	1366
357.6	-917.49
357.813	-1079.28
358.027	-2033.63
358.24	-802.8
358.453	2678.74
358.667	-1460.2
358.88	1034.22
359.094	-1161.2
359.307	288.76
359.52	-505.85
359.733	2041.82
359.947	-2383.84
360.16	1294.32
360.373	1701.86
360.587	-1325.04
360.8	-563.19
361.013	-428.03
361.226	-858.1
361.44	2564.06
361.653	1759.21
361.866	-878.58
362.079	-2109.41
362.292	231.42
362.506	3295.18
362.719	667.64
362.932	2910.16
363.145	-86.01
363.358	-976.88
363.571	-1474.54
363.785	-268.28
363.998	1255.4
364.211	1898.47
364.424	-1212.4
364.637	1062.9
364.85	-690.17
365.063	1867.75
365.276	73.73
365.489	-1621.99
365.702	-475.13
365.915	358.39
366.128	-188.41
366.341	1988.58
366.554	3350.48
366.767	-780.28
366.98	-30.72
367.193	886.77
367.406	-1601.51
367.619	3755.97
367.832	2072.54
368.045	315.39
368.258	380.92
368.471	942.07
368.684	-2160.61
368.896	-1957.86
369.109	-14.34
369.322	-1292.27
369.535	-241.66
369.748	-1505.26
369.961	-847.86
370.173	-2979.79
370.386	-2670.55
370.599	2625.5
370.812	-612.34
371.025	-759.8
371.237	104.45
371.45	274.43
371.663	718.84
371.876	-737.27
372.088	4794.29
372.301	-851.95
372.514	-1669.09
372.726	511.99
372.939	-403.45
373.152	-233.47
373.364	972.79
373.577	3401.68
373.79	-614.39
374.002	-1224.69
374.215	-2791.38
374.428	-1964
374.64	1640.42
374.853	-1091.57
375.065	-696.31
375.278	3510.22
375.491	2.05
375.703	1486.83
375.916	-2050.02
376.128	-618.49
376.341	-1679.33
376.553	825.33
376.766	-1513.45
376.978	-1888.23
377.191	847.86
377.403	-1947.62
377.616	3102.67
377.828	4102.08
378.04	-1552.36
378.253	-686.07
378.465	403.45
378.678	1071.09
378.89	-1341.42
379.103	-962.55
379.315	268.28
379.527	-1806.31
379.74	-708.6
379.952	-225.28
380.164	-1628.14
380.377	2166.75
380.589	-38.91
380.801	18.43
381.014	1683.43
381.226	954.35
381.438	-45.06
381.65	-1380.33
381.863	77.82
382.075	-1030.13
382.287	-2230.24
382.499	-909.3
382.712	-278.52
382.924	-22.53
383.136	-876.53
383.348	-2981.84
383.56	-163.84
383.772	-978.93
383.985	49.15
384.197	1269.74
384.409	-731.12
384.621	495.61
384.833	-239.61
385.045	-24.58
385.257	-1529.83
385.469	-616.44
385.681	124.93
385.893	73.73
386.105	-1167.34
386.318	-2607.06
386.53	-397.31
386.742	-3020.75
386.954	-2455.51
387.166	2752.47
387.378	53.25
387.589	139.26
387.801	-3049.43
388.013	-1476.59
388.225	-1234.93
388.437	-2316.25
388.649	-1861.6
388.861	2613.21
389.073	1081.33
389.285	-679.93
389.497	731.12
389.709	1345.52
389.92	-1300.46
390.132	-1075.18
390.344	-790.52
390.556	-854
390.768	382.97
390.98	-1044.46
391.191	1896.42
391.403	569.34
391.615	286.72
391.827	-1206.25
392.038	-915.44
392.25	-294.91
392.462	-2201.57
392.674	-2060.26
392.885	-1658.85
393.097	-2547.67
393.309	-933.87
393.52	905.2
393.732	-1773.54
393.944	636.92
394.155	444.41
394.367	-1468.39
394.579	700.41
394.79	-1138.67
395.002	219.13
395.213	-2613.21
395.425	-370.68
395.637	-1210.35
395.848	-2381.79
396.06	307.2
396.271	110.59
396.483	-1284.08
396.694	-260.09
396.906	-573.43
397.117	1314.8
397.329	1429.48
397.54	-944.11
397.752	-1902.56
397.963	-1226.73
398.175	186.37
398.386	1054.7
398.598	-970.74
398.809	-2332.64
399.02	655.35
399.232	882.67
399.443	126.97
399.655	-1208.3
399.866	-1355.76
400.077	-606.2
400.289	1388.52
400.5	-165.89
400.711	854
400.923	-1406.95
401.134	-1286.12
401.345	-1955.81
401.556	3481.55
401.768	-1140.72
401.979	-536.57
402.19	837.62
402.401	-428.03
402.613	112.64
402.824	-772.08
403.035	-2645.98
403.246	-1791.97
403.457	143.36
403.669	149.5
403.88	-1357.8
404.091	-2306.01
404.302	-1505.26
404.513	-665.59
404.724	-956.4
404.935	-892.91
405.146	651.25
405.358	-1918.95
405.569	-1638.37
405.78	-2168.8
405.991	-972.79
406.202	57.34
406.413	-358.39
406.624	-1671.14
406.835	-567.29
407.046	2975.7
407.257	-137.21
407.468	1159.15
407.679	-468.98
407.89	1949.67
408.101	2004.96
408.312	-530.42
408.522	-1957.86
408.733	352.25
408.944	94.21
409.155	-567.29
409.366	942.07
409.577	-2011.11
409.788	-518.14
409.999	79.87
410.209	-907.25
410.42	-43.01
410.631	-1992.67
410.842	-374.78
411.053	5246.9
411.264	1150.96
411.474	-1296.36
411.685	-161.79
411.896	-1505.26
412.107	-2246.62
412.317	-1052.66
412.528	1828.84
412.739	-2271.2
412.949	-1505.26
413.16	90.11
413.371	1988.58
413.581	1040.37
413.792	-620.53
414.003	3653.58
414.213	1679.33
414.424	-2082.78
414.635	-681.97
414.845	-1245.16
415.056	-53.25
415.266	-1855.46
415.477	-2539.48
415.687	573.43
415.898	468.98
416.109	-1849.32
416.319	235.52
416.53	-3008.47
416.74	106.49
416.951	-1497.07
417.161	-32.77
417.372	-49.15
417.582	577.53
417.792	1591.27
418.003	2297.82
418.213	-835.57
418.424	432.12
418.634	-1791.97
418.844	1216.49
419.055	1855.46
419.265	-1372.14
419.476	466.94
419.686	-1017.84
419.896	14.34
420.107	-1077.23
420.317	-890.87
420.527	36.86
420.738	-653.3
420.948	1103.86
421.158	1263.6
421.368	-573.43
421.579	-317.44
421.789	-1290.22
421.999	-3358.67
422.209	-421.88
422.419	-546.81
422.63	-299
422.84	-501.75
423.05	-1173.49
423.26	-1175.53
423.47	-241.66
423.681	-2035.68
423.891	882.67
424.101	1591.27
424.311	-1003.5
424.521	-382.97
424.731	-880.63
424.941	-731.12
425.151	1630.18
425.361	-1822.69
425.571	-2713.56
425.781	4038.59
425.991	1013.74
426.201	1587.18
426.411	516.09
426.621	-1445.87
426.831	-2039.78
427.041	118.78
427.251	-425.98
427.461	1277.93
427.671	1218.54
427.881	-962.55
428.091	-286.72
428.301	2469.85
428.511	-268.28
428.721	-3213.26
428.93	-526.33
429.14	-1468.39
429.35	188.41
429.56	-1142.77
429.77	-528.38
429.98	-1378.28
430.189	-1196.01
430.399	2758.61
430.609	1456.11
430.819	198.65
431.029	-1384.43
431.238	-946.16
431.448	-792.56
431.658	-2697.17
431.867	-880.63
432.077	249.85
432.287	-1058.8
432.497	-1243.12
432.706	12.29
432.916	-438.27
433.125	-3018.71
433.335	-1353.71
433.545	1325.04
433.754	4052.93
433.964	-1396.71
434.174	-974.83
434.383	2220
434.593	-1325.04
434.802	942.07
435.012	-1468.39
435.221	165.89
435.431	-528.38
435.64	-1128.43
435.85	-1271.79
436.059	268.28
436.269	737.27
436.478	-1044.46
436.688	-2373.6
436.897	-968.69
437.107	-2363.36
437.316	28456.53
437.525	-4.1
437.735	83.97
437.944	51.2
438.154	2334.68
438.363	55.3
438.572	2901.97
438.782	161.79
438.991	-1066.99
439.2	-282.62
439.41	-1060.85
439.619	-1222.64
439.828	276.48
440.038	-81.92
440.247	2050.02
440.456	-1525.74
440.665	507.9
440.875	884.72
441.084	348.15
441.293	-1804.26
441.502	-1329.13
441.711	-1099.76
441.92	335.87
442.13	-462.84
442.339	-1333.23
442.548	-598.01
442.757	1652.71
442.966	-3082.19
443.175	-1157.1
443.384	1413.1
443.593	1503.21
443.803	-2263.01
444.012	-333.82
444.221	-614.39
444.43	4739
444.639	505.85
444.848	2054.11
445.057	-1363.95
445.266	-1531.88
445.475	-2574.3
445.684	-1456.11
445.893	2320.35
446.102	161.79
446.311	-3188.69
446.52	30.72
446.728	2822.1
446.937	-2715.61
447.146	-3573.71
447.355	286.72
447.564	-483.32
447.773	1609.7
447.982	1372.14
448.191	481.27
448.399	-1251.31
448.608	-1013.74
448.817	-618.49
449.026	870.39
449.235	-1603.56
449.443	1036.27
449.652	-669.69
449.861	-1107.95
450.07	174.08
450.278	1966.05
450.487	-3186.64
450.696	-167.93
450.904	-1343.47
451.113	-927.73
451.322	612.34
451.53	-765.94
451.739	2887.64
451.948	-1292.27
452.156	20.48
452.365	4364.22
452.574	886.77
452.782	258.04
452.991	-569.34
453.199	813.04
453.408	200.7
453.616	-1570.79
453.825	1155.05
454.033	1257.45
454.242	3448.78
454.45	3508.17
454.659	436.22
454.867	4075.46
455.076	-1343.47
455.284	-1015.79
455.493	-1722.34
455.701	-1185.77
455.91	3088.34
456.118	-1023.98
456.326	-2109.41
456.535	2822.1
456.743	1110
456.951	-2185.18
457.16	1122.29
457.368	772.08
457.576	-1585.13
457.785	2789.33
457.993	-71.68
458.201	-1542.12
458.41	722.93
458.618	-1075.18
458.826	-204.8
459.034	-3065.81
459.243	-1574.89
459.451	8.19
459.659	-16.38
459.867	-686.07
460.075	-821.24
460.284	-253.95
460.492	-2375.64
460.7	-440.31
460.908	-770.04
461.116	-2680.79
461.324	-1486.83
461.532	-2389.98
461.741	-1988.58
461.949	-847.86
462.157	2136.03
462.365	-104.45
462.573	-57.34
462.781	497.66
462.989	-964.59
463.197	-1417.19
463.405	-2326.49
463.613	6.14
463.821	-2613.21
464.029	43.01
464.237	-1175.53
464.445	-864.24
464.653	821.24
464.861	-301.05
465.069	1349.61
465.276	4796.34
465.484	-948.21
465.692	-743.41
465.9	-976.88
466.108	-763.89
466.316	813.04
466.524	-892.91
466.731	-489.46
466.939	1955.81
467.147	-221.18
467.355	-264.19
467.563	1443.82
467.77	749.56
467.978	-2504.67
468.186	370.68
468.393	2140.13
468.601	-450.55
468.809	-1941.47
469.017	-897.01
469.224	-1877.99
469.432	1069.04
469.64	-1413.1
469.847	-2017.25
470.055	356.35
470.263	-1216.49
470.47	-1173.49
470.678	1458.15
470.885	-188.41
471.093	2406.36
471.3	870.39
471.508	-1126.38
471.716	-606.2
471.923	169.98
472.131	323.58
472.338	-1449.96
472.546	-991.22
472.753	2813.91
472.961	-1492.97
473.168	-272.38
473.375	-481.27
473.583	1069.04
473.79	-794.61
473.998	198.65
474.205	364.54
474.412	1814.5
474.62	-937.97
474.827	-1460.2
475.035	1394.67
475.242	-854
475.449	-1411.05
475.657	4231.1
475.864	3250.13
476.071	-40.96
476.278	-983.02
476.486	-767.99
476.693	129.02
476.9	417.79
477.107	233.47
477.315	-1052.66
477.522	24.58
477.729	1607.66
477.936	-722.93
478.143	-1533.93
478.351	1464.3
478.558	-1325.04
478.765	-702.45
478.972	-555
479.179	411.64
479.386	667.64
479.593	890.87
479.8	878.58
480.007	-1746.92
480.215	-354.3
480.422	1083.38
480.629	-2418.65
480.836	1202.16
481.043	3016.66
481.25	-823.28
481.457	-1673.19
481.664	-679.93
481.871	602.1
482.078	-1413.1
482.284	-1603.56
482.491	2009.06
482.698	1820.64
482.905	-1122.29
483.112	-2334.68
483.319	92.16
483.526	90.11
483.733	2322.4
483.94	-2734.04
484.146	-1804.26
484.353	-12.29
484.56	-514.04
484.767	-3205.07
484.974	2234.33
485.18	1789.92
485.387	-628.73
485.594	-1273.84
485.801	1859.56
486.007	108.54
486.214	-929.78
486.421	-1988.58
486.627	-450.55
486.834	673.78
487.041	495.61
487.247	-1351.66
487.454	-1456.11
487.661	1093.62
487.867	509.94
488.074	-1755.11
488.281	1038.32
488.487	-122.88
488.694	-952.31
488.9	-569.34
489.107	-1193.97
489.313	-790.52
489.52	-651.25
489.726	-1779.68
489.933	3004.37
490.139	2883.54
490.346	-376.83
490.552	305.15
490.759	-434.17
490.965	225.28
491.172	16932.61
491.378	-538.62
491.584	65.54
491.791	1785.83
491.997	-284.67
492.204	-573.43
492.41	3260.37
492.616	-1796.07
492.823	-1542.12
493.029	-1239.02
493.235	2267.1
493.442	-256
493.648	-417.79
493.854	-636.92
494.06	4747.19
494.267	731.12
494.473	-894.96
494.679	-1402.86
494.885	258.04
495.091	3299.28
495.298	876.53
495.504	-2654.17
495.71	-180.22
495.916	-1986.53
496.122	2686.94
496.328	538.62
496.535	659.45
496.741	-473.08
496.947	718.84
497.153	-329.72
497.359	423.93
497.565	552.95
497.771	1687.53
497.977	-122.88
498.183	-817.14
498.389	878.58
498.595	-1873.89
498.801	446.46
499.007	815.09
499.213	-389.11
499.419	-647.16
499.625	-176.13
499.831	3293.13
500.037	-598.01
500.243	-1449.96
500.448	-716.79
500.654	905.2
500.86	1992.67
501.066	-686.07
501.272	2463.71
501.478	-1988.58
501.684	-837.62
501.889	-1955.81
502.095	-1433.58
502.301	-362.49
502.507	614.39
502.712	-624.63
502.918	-1290.22
503.124	-1204.21
503.33	948.21
503.535	-919.54
503.741	-43.01
503.947	-399.35
504.152	-415.74
504.358	-2222.05
504.564	-669.69
504.769	624.63
504.975	4460.48
505.181	-182.27
505.386	-1796.07
505.592	-747.51
505.797	792.56
506.003	-2779.09
506.208	1970.15
506.414	-606.2
506.619	-30.72
506.825	581.62
507.03	-2172.89
507.236	-1124.33
507.441	-100.35
507.647	-747.51
507.852	131.07
508.058	1245.17
508.263	1202.16
508.469	-651.25
508.674	-2389.98
508.879	-532.47
509.085	-190.46
509.29	-1628.14
509.495	-1413.1
509.701	-1069.04
509.906	876.53
510.111	-657.4
510.317	892.91
510.522	260.09
510.727	2099.17
510.933	-694.26
511.138	333.82
511.343	-798.71
511.548	626.68
511.754	-1710.05
511.959	2484.19
512.164	-57.34
512.369	3491.79
512.574	3674.06
512.779	-1757.16
512.985	-716.79
513.19	1011.7
513.395	18.43
513.6	-1054.7
513.805	-466.94
514.01	1966.05
514.215	-313.34
514.42	3139.54
514.625	-444.41
514.83	2570.2
515.035	-176.13
515.24	-149.5
515.445	3035.09
515.65	1939.43
515.855	442.36
516.06	-448.51
516.265	471.03
516.47	1333.23
516.675	286.72
516.88	-2392.03
517.085	61.44
517.29	-471.03
517.495	401.4
517.7	1478.63
517.904	-219.13
518.109	692.21
518.314	-595.96
518.519	-288.76
518.724	733.17
518.928	671.73
519.133	-489.46
519.338	303.1
519.543	299
519.747	989.17
519.952	2983.89
520.157	6262.69
520.362	960.5
520.566	2928.6
520.771	-1906.66
520.976	1103.86
521.18	3903.43
521.385	-972.79
521.59	-1028.08
521.794	565.24
521.999	2205.66
522.203	-1026.03
522.408	-487.42
522.612	-1081.33
522.817	632.82
523.022	2133.98
523.226	-321.53
523.431	-929.78
523.635	83.97
523.84	2078.69
524.044	-802.8
524.249	1777.64
524.453	2932.69
524.657	174.08
524.862	6270.88
525.066	-1046.51
525.271	-137.21
525.475	1230.83
525.679	-34.82
525.884	-1914.85
526.088	1382.38
526.292	2533.34
526.497	174.08
526.701	-899.06
526.905	-333.82
527.11	92.16
527.314	-212.99
527.518	3622.86
527.722	-817.14
527.927	1175.53
528.131	-2047.97
528.335	5556.14
528.539	1773.54
528.744	2908.12
528.948	-1806.31
529.152	-1271.79
529.356	2637.78
529.56	563.19
529.764	194.56
529.968	40.96
530.173	8415.1
530.377	6385.57
530.581	-1802.21
530.785	1755.11
530.989	-491.51
531.193	301.05
531.397	-1339.37
531.601	335.87
531.805	1740.77
532.009	1648.61
532.213	104.45
532.417	737.27
532.621	1974.24
532.825	3563.47
533.029	-18.43
533.233	638.97
533.436	491.51
533.64	217.08
533.844	1884.13
534.048	-415.74
534.252	835.57
534.456	3708.87
534.66	2299.87
534.863	6.14
535.067	288.76
535.271	2414.56
535.475	-448.51
535.679	1511.4
535.882	3344.33
536.086	2129.89
536.29	2281.44
536.493	708.6
536.697	1437.67
536.901	1007.6
537.104	2019.3
537.308	1148.91
537.512	1359.85
537.715	4003.78
537.919	1853.41
538.123	1806.31
538.326	1308.65
538.53	2871.25
538.733	3588.04
538.937	2545.63
539.141	1953.76
539.344	3153.87
539.548	2127.84
539.751	5060.53
539.955	6039.46
540.158	7366.54
540.362	5011.38
540.565	3254.22
540.768	4388.8
540.972	11446.1
541.175	9295.73
541.379	6893.46
541.582	6373.28
541.785	8187.78
541.989	9893.74
542.192	5504.94
542.396	6539.16
542.599	8626.04
542.802	9058.17
543.005	7681.93
543.209	6864.79
543.412	8411.01
543.615	8349.57
543.819	8312.71
544.022	6418.33
544.225	7806.86
544.428	8171.4
544.631	10594.14
544.835	7505.81
545.038	6344.61
545.241	6786.97
545.444	10114.92
545.647	8382.34
545.85	7194.51
546.054	5906.34
546.257	4126.66
546.46	6885.27
546.663	6315.94
546.866	6989.72
547.069	7380.88
547.272	5357.49
547.475	6238.11
547.678	5492.65
547.881	4177.86
548.084	4648.89
548.287	5224.37
548.49	2562.01
548.693	4095.94
548.896	1843.17
549.099	4419.52
549.302	2760.66
549.505	2179.04
549.707	1560.55
549.91	4263.87
550.113	1916.9
550.316	1609.7
550.519	4528.06
550.722	4181.95
550.924	1869.8
551.127	3139.54
551.33	2248.67
551.533	1478.63
551.736	1220.59
551.938	1042.42
552.141	2789.33
552.344	675.83
552.546	2895.83
552.749	1597.42
552.952	1658.85
553.154	1693.67
553.357	1808.36
553.56	1433.58
553.762	7002.01
553.965	5912.49
554.168	1894.37
554.37	3997.64
554.573	2629.59
554.775	4237.25
554.978	3237.84
555.18	399.35
555.383	1118.19
555.585	5183.41
555.788	2648.02
555.99	1288.17
556.193	1871.84
556.395	3123.15
556.598	870.39
556.8	1454.06
557.003	1892.32
557.205	5586.86
557.407	1486.83
557.61	1996.77
557.812	2291.68
558.015	4413.37
558.217	1771.49
558.419	2193.37
558.622	3643.34
558.824	2394.08
559.026	671.73
559.228	1595.37
559.431	3207.12
559.633	3110.86
559.835	1472.49
560.037	3248.08
560.24	4708.28
560.442	4118.47
560.644	1304.56
560.846	3149.78
561.048	3459.02
561.25	4593.59
561.453	2938.84
561.655	2021.35
561.857	2432.99
562.059	1964
562.261	4720.57
562.463	2844.63
562.665	2635.74
562.867	3733.45
563.069	3721.16
563.271	4896.69
563.473	3604.43
563.675	3184.59
563.877	3084.24
564.079	2002.91
564.281	5406.64
564.483	3721.16
564.685	3063.76
564.887	2424.8
565.089	4478.91
565.291	4612.03
565.493	1718.25
565.694	5326.77
565.896	1877.99
566.098	4034.5
566.3	5091.25
566.502	2795.48
566.704	5746.6
566.905	430.07
567.107	1251.31
567.309	1329.13
567.511	4130.75
567.712	1236.97
567.914	2324.44
568.116	413.69
568.317	4648.89
568.519	3321.81
568.721	159.74
568.922	79.87
569.124	2596.82
569.326	5087.15
569.527	2256.86
569.729	2369.5
569.93	6608.8
570.132	1748.97
570.334	4009.92
570.535	788.47
570.737	1796.07
570.938	6485.92
571.14	1974.24
571.341	3542.99
571.543	7096.21
571.744	2570.2
571.946	4229.06
572.147	1535.98
572.348	5506.99
572.55	4009.92
572.751	4892.6
572.953	2070.5
573.154	4333.5
573.355	7032.72
573.557	9529.2
573.758	3534.79
573.959	3452.88
574.161	5169.07
574.362	5494.7
574.563	7337.87
574.765	6072.23
574.966	6375.33
575.167	2277.34
575.368	5638.06
575.569	3801.03
575.771	6223.78
575.972	3039.19
576.173	4128.71
576.374	5816.23
576.575	4888.5
576.776	1417.19
576.978	2451.42
577.179	3047.38
577.38	4384.7
577.581	2480.09
577.782	3395.53
577.983	5007.28
578.184	5908.39
578.385	3213.26
578.586	4165.57
578.787	2469.85
578.988	4118.47
579.189	1597.42
579.39	2707.41
579.591	3684.3
579.792	2680.79
579.993	4671.42
580.194	4923.32
580.395	5867.43
580.596	3889.09
580.796	5109.68
580.997	2758.61
581.198	3585.99
581.399	5623.72
581.6	6297.5
581.801	2615.26
582.001	6725.53
582.202	2244.57
582.403	1329.13
582.604	7514
582.804	3493.83
583.005	3997.64
583.206	686.07
583.407	5461.93
583.607	3104.72
583.808	2779.09
584.009	4847.54
584.209	4511.68
584.41	1409
584.61	3227.6
584.811	3231.69
585.012	2369.5
585.212	1951.71
585.413	3229.65
585.613	3205.07
585.814	2133.98
586.014	5263.28
586.215	2553.82
586.415	3348.43
586.616	1923.04
586.816	2701.27
587.017	4845.49
587.217	1669.09
587.418	6094.76
587.618	2539.48
587.819	2510.81
588.019	1038.32
588.219	411.64
588.42	2805.72
588.62	786.42
588.82	784.37
589.021	1345.52
589.221	3237.84
589.421	1378.28
589.622	4069.31
589.822	1361.9
590.022	5500.84
590.222	3416.01
590.423	1728.49
590.623	759.8
590.823	2775
591.023	2549.72
591.223	710.65
591.423	5816.23
591.624	2564.06
591.824	2324.44
592.024	1114.1
592.224	1959.91
592.424	5345.2
592.624	2394.08
592.824	2914.26
593.024	1906.66
593.224	4999.09
593.424	4573.11
593.624	2441.18
593.824	2299.87
594.024	2740.18
594.224	870.39
594.424	2549.72
594.624	495.61
594.824	1626.09
595.024	1120.24
595.224	2346.97
595.424	647.16
595.624	661.49
595.824	978.93
596.023	4071.36
596.223	3913.67
596.423	1550.31
596.623	2877.4
596.823	-419.83
597.023	-774.13
597.222	6248.35
597.422	724.98
597.622	-296.96
597.822	1030.13
598.021	2271.2
598.221	763.89
598.421	-679.93
598.62	1587.18
598.82	366.59
599.02	4853.69
599.219	4454.33
599.419	2451.42
599.618	477.18
599.818	2512.86
600.018	-718.84
600.217	825.33
600.417	4024.26
600.616	1312.75
600.816	1832.93
601.015	1857.51
601.215	835.57
601.414	616.44
601.614	872.43
601.813	-577.53
602.013	1978.34
602.212	1236.97
602.412	266.24
602.611	2594.78
602.81	1880.04
603.01	3030.99
603.209	1796.07
603.408	-1310.7
603.608	2475.99
603.807	1183.73
604.006	5881.77
604.206	0
604.405	1318.89
604.604	1947.62
604.803	1429.48
605.003	167.93
605.202	100.35
605.401	641.01
605.6	2377.69
605.8	335.87
605.999	284.67
606.198	1720.29
606.397	2058.21
606.596	765.94
606.795	2693.08
606.994	3479.5
607.193	661.49
607.393	3684.3
607.592	3960.77
607.791	1423.34
607.99	3803.08
608.189	3966.92
608.388	4521.91
608.587	4188.1
608.786	2160.61
608.985	511.99
609.184	1998.82
609.382	3575.75
609.581	2705.37
609.78	4812.73
609.979	4335.55
610.178	2959.31
610.377	2553.82
610.576	473.08
610.775	3078.1
610.973	3323.85
611.172	3944.39
611.371	2889.68
611.57	2324.44
611.769	5021.62
611.967	1482.73
612.166	4810.68
612.365	2686.94
612.564	2938.84
612.762	3205.07
612.961	3284.94
613.16	2179.04
613.358	3112.91
613.557	-217.08
613.756	2904.02
613.954	4227.01
614.153	1318.89
614.351	1228.78
614.55	331.77
614.749	3727.3
614.947	1892.32
615.146	796.66
615.344	1865.7
615.543	-14.34
615.741	2263.01
615.94	3016.66
616.138	610.29
616.337	3131.34
616.535	1040.37
616.733	-22.53
616.932	1253.36
617.13	3721.16
617.329	5271.47
617.527	-1007.6
617.725	-1601.51
617.924	-1132.53
618.122	452.6
618.32	-800.76
618.519	-1495.02
618.717	2514.91
618.915	2142.18
619.114	1163.25
619.312	0
619.51	374.78
619.708	2224.09
619.906	-604.15
620.105	-555
620.303	-329.72
620.501	3874.76
620.699	-1611.75
620.897	944.11
621.095	2015.2
621.293	-1032.18
621.492	1943.52
621.69	-137.21
621.888	1060.85
622.086	3321.81
622.284	1060.85
622.482	342.01
622.68	583.67
622.878	20.48
623.076	-16.38
623.274	133.12
623.472	247.8
623.67	1339.37
623.868	-2430.94
624.065	983.03
624.263	229.37
624.461	960.5
624.659	-552.95
624.857	3235.79
625.055	2371.55
625.253	-425.98
625.45	-159.74
625.648	225.28
625.846	227.32
626.044	282.62
626.242	305.15
626.439	2144.22
626.637	499.7
626.835	-163.84
627.032	1890.28
627.23	-1480.68
627.428	3524.55
627.626	1271.79
627.823	421.88
628.021	2699.22
628.218	1980.39
628.416	1361.9
628.614	-1251.31
628.811	-1755.11
629.009	-901.11
629.206	-352.25
629.404	-1083.38
629.601	174.08
629.799	-1857.51
629.996	3358.67
630.194	962.55
630.391	884.72
630.589	-569.34
630.786	2013.15
630.984	428.03
631.181	-2254.81
631.378	-788.47
631.576	1791.97
631.773	-2088.93
631.97	-1472.49
632.168	-1779.68
632.365	86.01
632.562	307.2
632.76	-1136.62
632.957	497.66
633.154	-16.38
633.352	511.99
633.549	-722.93
633.746	2045.92
633.943	897.01
634.14	-757.75
634.338	2346.97
634.535	-475.13
634.732	-284.67
634.929	2820.05
635.126	591.86
635.323	65.54
635.52	2166.75
635.717	329.72
635.915	-489.46
636.112	-92.16
636.309	-1781.73
636.506	-565.24
636.703	-2428.89
636.9	-376.83
637.097	5453.74
637.294	346.11
637.491	-1075.18
637.688	2199.52
637.884	-1185.77
638.081	-622.58
638.278	-149.5
638.475	-333.82
638.672	-667.64
638.869	-890.87
639.066	5912.49
639.263	849.91
639.459	776.18
639.656	-2486.23
639.853	-1765.35
640.05	15386.39
640.246	2119.65
640.443	-239.61
640.64	-2602.97
640.837	460.79
641.033	-1873.89
641.23	-59.39
641.427	-260.09
641.623	696.31
641.82	-661.49
642.017	-1220.59
642.213	-423.93
642.41	-458.74
642.606	1191.92
642.803	1333.23
643	223.23
643.196	-1402.86
643.393	2170.85
643.589	251.9
643.786	-1148.91
643.982	4220.86
644.179	1492.97
644.375	-1021.94
644.571	-509.94
644.768	-1480.68
644.964	-270.33
645.161	-270.33
645.357	2627.54
645.553	370.68
645.75	2185.18
645.946	-6.14
646.143	-135.17
646.339	419.83
646.535	321.53
646.731	1562.6
646.928	-49.15
647.124	-1828.84
647.32	2375.64
647.516	2095.07
647.713	-1447.91
647.909	-196.6
648.105	-589.81
648.301	-2715.61
648.497	436.22
648.693	-610.29
648.89	-561.14
649.086	-174.08
649.282	-944.11
649.478	-530.42
649.674	266.24
649.87	1912.8
650.066	1241.07
650.262	-1097.71
650.458	1605.61
650.654	-1406.95
650.85	192.51
651.046	-604.15
651.242	-301.05
651.438	104.45
651.634	-1761.25
651.83	-1023.98
652.026	620.53
652.222	-313.34
652.417	-507.9
652.613	1263.6
652.809	-1558.5
653.005	-1075.18
653.201	2574.3
653.397	-1155.05
653.592	-307.2
653.788	-1226.73
653.984	1599.46
654.18	4927.41
654.375	-886.77
654.571	-180.22
654.767	-161.79
654.962	-1023.98
655.158	-2533.34
655.354	-716.79
655.549	1216.49
655.745	1193.97
655.941	3764.17
656.136	-1013.74
656.332	-1402.86
656.527	-296.96
656.723	1474.54
656.918	-2052.06
657.114	-763.89
657.309	-370.68
657.505	774.13
657.7	1380.33
657.896	-1409
658.091	-1363.95
658.287	-845.81
658.482	-2320.35
658.678	-1003.5
658.873	94.21
659.068	3319.76
659.264	-530.42
659.459	30684.72
659.654	784.37
659.85	2408.41
660.045	-1570.79
660.24	1923.04
660.436	5418.93
660.631	-256
660.826	2228.19
661.021	212.99
661.217	2408.41
661.412	-903.15
661.607	-2275.29
661.802	-567.29
661.997	-440.31
662.192	497.66
662.388	-2662.36
662.583	-573.43
662.778	423.93
662.973	-1855.46
663.168	-2539.48
663.363	-1099.76
663.558	4001.73
663.753	1331.18
663.948	-2111.46
664.143	-1816.55
664.338	188.41
664.533	872.43
664.728	-743.41
664.923	-1265.64
665.118	98.3
665.313	-1087.47
665.508	1400.81
665.703	1249.26
665.897	1107.95
666.092	331.77
666.287	354.3
666.482	-641.01
666.677	1877.99
666.872	1521.64
667.066	-899.06
667.261	-1206.25
667.456	-16.38
667.651	1320.94
667.845	1918.95
668.04	450.55
668.235	-1505.26
668.429	1177.58
668.624	51.2
668.819	-831.48
669.013	-1716.2
669.208	755.7
669.402	-1562.6
669.597	-10.24
669.792	-800.76
669.986	2934.74
670.181	-2336.73
670.375	307.2
670.57	-1832.93
670.764	-1103.86
670.959	-587.77
671.153	-110.59
671.348	-292.86
671.542	2506.71
671.737	-2099.17
671.931	-2815.96
672.125	452.6
672.32	1138.67
672.514	1157.1
672.709	-1607.66
672.903	-243.71
673.097	-755.7
673.291	-1279.98
673.486	1685.48
673.68	114.69
673.874	-833.52
674.069	-1050.61
674.263	868.34
674.457	1406.95
674.651	710.65
674.845	-657.4
675.04	3821.51
675.234	-1261.55
675.428	-368.63
675.622	-1517.54
675.816	-1802.21
676.01	-690.17
676.204	-198.65
676.398	61.44
676.592	-698.36
676.787	-874.48
676.981	88.06
677.175	102.4
677.369	-3311.57
677.563	-59.39
677.757	-102.4
677.95	-1318.89
678.144	-2779.09
678.338	-1081.33
678.532	647.16
678.726	-2451.42
678.92	3037.14
679.114	38.91
679.308	258.04
679.502	-3633.1
679.695	-2160.61
679.889	-563.19
680.083	-2551.77
680.277	-2445.27
680.471	-444.41
680.664	-1497.07
680.858	290.81
681.052	-190.46
681.245	-1257.45
681.439	667.64
681.633	-927.73
681.826	-366.59
682.02	-1011.7
682.214	821.24
682.407	-1226.73
682.601	-925.68
682.795	-507.9
682.988	-702.45
683.182	-1282.03
683.375	-456.7
683.569	-952.31
683.762	759.8
683.956	1943.52
684.149	1578.98
684.343	1869.8
684.536	-1343.47
684.73	-14.34
684.923	-2514.91
685.116	-1953.76
685.31	2367.45
685.503	786.42
685.696	-43.01
685.89	1193.97
686.083	-1751.01
686.276	-1138.67
686.47	67.58
686.663	-686.07
686.856	-425.98
687.05	1294.32
687.243	-534.52
687.436	1468.39
687.629	1775.59
687.822	555
688.016	-856.05
688.209	-1073.14
688.402	428.03
688.595	-329.72
688.788	-2242.53
688.981	-1628.14
689.174	3043.28
689.367	153.6
689.561	-825.33
689.754	-2645.98
689.947	-645.11
690.14	-143.36
690.333	-3248.08
690.526	-743.41
690.719	1540.07
690.912	2011.11
691.104	268.28
691.297	-282.62
691.49	174.08
691.683	-970.74
691.876	-2897.88
692.069	2684.89
692.262	-161.79
692.455	292.86
692.647	-450.55
692.84	-1636.33
693.033	817.14
693.226	430.07
693.419	-1576.94
693.611	-647.16
693.804	38.91
693.997	567.29
694.189	-288.76
694.382	-1431.53
694.575	3217.36
694.767	-157.69
694.96	-1517.54
695.153	-331.77
695.345	278.52
695.538	1867.75
695.731	350.2
695.923	-675.83
696.116	100.35
696.308	1533.93
696.501	-94.21
696.693	2203.61
696.886	-1005.55
697.078	-2144.22
697.271	487.42
697.463	964.59
697.655	-278.52
697.848	153.6
698.04	-1175.53
698.233	-2146.27
698.425	-657.4
698.617	1370.09
698.81	-1378.28
699.002	-1017.84
699.194	1863.65
699.387	970.74
699.579	-1103.86
699.771	-1920.99
699.963	-2707.41
700.156	-2015.2
700.348	1132.53
700.54	108.54
700.732	-1118.19
700.924	-563.19
701.117	-790.52
701.309	-1110
701.501	-2226.14
701.693	4446.14
701.885	-1079.28
702.077	1308.65
702.269	370.68
702.461	1716.2
702.653	221.18
702.845	-681.97
703.037	387.07
703.229	1871.84
703.421	-1064.94
703.613	-1374.19
703.805	3375.05
703.997	337.91
704.189	1187.82
704.381	-927.73
704.573	3760.07
704.765	-919.54
704.957	1433.58
705.148	-67.58
705.34	-913.39
705.532	6.14
705.724	-1077.23
705.916	-1990.63
706.107	1687.53
706.299	276.48
706.491	2142.18
706.682	1597.42
706.874	-677.88
707.066	-579.58
707.258	-1576.94
707.449	-526.33
707.641	5988.26
707.832	-61.44
708.024	-845.81
708.216	-337.91
708.407	692.21
708.599	-585.72
708.79	1841.12
708.982	-1777.64
709.173	-499.7
709.365	-993.26
709.556	-227.32
709.748	-468.98
709.939	69.63
710.131	620.53
710.322	-2228.19
710.514	2715.61
710.705	-835.57
710.896	516.09
711.088	440.31
711.279	595.96
711.47	1892.32
711.662	1155.05
711.853	-1488.87
712.044	-2506.71
712.236	253.95
712.427	-34.82
712.618	-2500.57
712.809	-1130.48
713	-509.94
713.192	1382.38
713.383	-825.33
713.574	372.73
713.765	18.43
713.956	-831.48
714.147	2002.91
714.338	-1791.97
714.53	1488.87
714.721	2600.92
714.912	-1284.08
715.103	-2158.56
715.294	704.5
715.485	1478.63
715.676	-2537.43
715.867	-2830.29
716.058	-837.62
716.249	1521.64
716.44	-366.59
716.63	-1712.1
716.821	-331.77
717.012	1316.84
717.203	-1460.2
717.394	-976.88
717.585	-2439.13
717.776	-868.34
717.966	-1234.93
718.157	-1484.78
718.348	641.01
718.539	-151.55
718.73	1013.74
718.92	2377.69
719.111	-956.4
719.302	395.26
719.492	-1021.94
719.683	782.32
719.874	-1298.41
720.064	4061.12
720.255	-2220
720.446	-247.8
720.636	1648.61
720.827	1392.62
721.017	657.4
721.208	-688.12
721.398	-1044.46
721.589	966.64
721.779	311.29
721.97	-3424.2
722.16	-1458.15
722.351	-2363.36
722.541	-1155.05
722.732	1142.77
722.922	1099.76
723.112	1769.45
723.303	-1837.03
723.493	-1765.35
723.683	1275.88
723.874	2314.2
724.064	606.2
724.254	2064.35
724.445	-1060.85
724.635	972.79
724.825	-2983.89
725.015	-831.48
725.206	-749.56
725.396	1308.65
725.586	-1409
725.776	870.39
725.966	3626.95
726.157	1314.8
726.347	2246.62
726.537	-227.32
726.727	1982.43
726.917	-1310.7
727.107	-1050.61
727.297	-2881.49
727.487	1880.04
727.677	-1064.94
727.867	149.5
728.057	-387.07
728.247	638.97
728.437	645.11
728.627	-837.62
728.817	-911.35
729.007	509.94
729.197	634.87
729.387	-684.02
729.576	-385.02
729.766	1791.97
729.956	-442.36
730.146	-874.48
730.336	-2062.3
730.525	-282.62
730.715	-1144.81
730.905	-51.2
731.095	-837.62
731.284	690.17
731.474	1558.5
731.664	-649.21
731.853	-2566.1
732.043	-1431.53
732.233	-1927.14
732.422	1495.02
732.612	-1429.48
732.802	206.84
732.991	34.82
733.181	-2969.55
733.37	-1597.42
733.56	-581.62
733.749	739.32
733.939	-2220
734.128	894.96
734.318	2445.27
734.507	-845.81
734.697	-2463.71
734.886	1447.91
735.076	-1712.1
735.265	1751.01
735.454	358.39
735.644	-1806.31
735.833	-1507.3
736.022	-180.22
736.212	-1130.48
736.401	-595.96
736.59	1146.86
736.779	-681.97
736.969	-2252.77
737.158	88.06
737.347	-1521.64
737.536	-270.33
737.726	-1519.59
737.915	1335.28
738.104	837.62
738.293	-874.48
738.482	-96.25
738.671	-1370.09
738.86	-2461.66
739.049	854
739.238	-1353.71
739.427	-798.71
739.616	-1972.19
739.806	-1910.75
739.995	-3123.15
740.183	-2107.36
740.372	-165.89
740.561	-714.74
740.75	-3635.14
740.939	47.1
741.128	268.28
741.317	901.11
741.506	-1177.58
741.695	231.42
741.884	792.56
742.072	1570.79
742.261	-288.76
742.45	-407.55
742.639	454.65
742.828	270.33
743.016	-802.8
743.205	-1820.64
743.394	-1640.42
743.582	1456.11
743.771	2.05
743.96	569.34
744.148	-137.21
744.337	-143.36
744.526	333.82
744.714	-1091.57
744.903	3868.61
745.091	-253.95
745.28	1529.83
745.468	802.8
745.657	239.61
745.845	77.82
746.034	-1038.32
746.222	-393.21
746.411	-6.14
746.599	532.47
746.788	98.3
746.976	-1406.95
747.165	-933.87
747.353	-110.59
747.541	3995.59
747.73	-2469.85
747.918	1187.82
748.106	671.73
748.295	1435.63
748.483	432.12
748.671	-172.03
748.859	-247.8
749.048	1519.59
749.236	-614.39
749.424	-1091.57
749.612	1769.45
749.8	-604.15
749.989	-423.93
750.177	129.02
750.365	606.2
750.553	657.4
750.741	-2428.89
750.929	3600.33
751.117	-616.44
751.305	92.16
751.493	-827.38
751.681	-1910.75
751.869	-530.42
752.057	815.09
752.245	-958.45
752.433	1222.64
752.621	-45.06
752.809	1298.41
752.997	1161.2
753.185	563.19
753.373	-241.66
753.56	-499.7
753.748	868.34
753.936	-233.47
754.124	585.72
754.312	-727.03
754.499	2482.14
754.687	1157.1
754.875	1466.35
755.063	-776.18
755.25	1566.7
755.438	2123.74
755.626	1310.7
755.813	-890.87
756.001	1239.02
756.189	-915.44
756.376	-364.54
756.564	86.01
756.751	1191.92
756.939	-737.27
757.127	2598.87
757.314	118.78
757.502	-1234.93
757.689	2136.03
757.877	1089.52
758.064	1478.63
758.251	-589.81
758.439	1595.37
758.626	2613.21
758.814	-593.91
759.001	2095.07
759.188	1990.63
759.376	-1900.51
759.563	1294.32
759.75	1677.29
759.938	-524.28
760.125	-464.89
760.312	141.31
760.5	-133.12
760.687	1140.72
760.874	-1011.7
761.061	1165.29
761.248	-2285.53
761.436	3979.2
761.623	-149.5
761.81	622.58
761.997	1263.6
762.184	-346.11
762.371	-688.12
762.558	-75.77
762.745	1869.8
762.932	188.41
763.119	784.37
763.306	374.78
763.493	493.56
763.68	720.89
763.867	1865.7
764.054	-1181.68
764.241	-415.74
764.428	1929.19
764.615	235.52
764.802	65.54
764.989	-874.48
765.176	321.53
765.362	1234.93
765.549	-645.11
765.736	8267.65
765.923	1851.36
766.11	1740.77
766.296	129.02
766.483	-2142.18
766.67	477.18
766.857	1419.24
767.043	-1019.89
767.23	745.46
767.417	2136.03
767.603	1095.66
767.79	-180.22
767.976	2631.64
768.163	2297.82
768.35	1196.01
768.536	2.05
768.723	-151.55
768.909	1998.82
769.096	2676.7
769.282	114.69
769.469	-491.51
769.655	3127.25
769.842	1042.42
770.028	-1505.26
770.214	313.34
770.401	598.01
770.587	-460.79
770.774	-2852.82
770.96	-2863.06
771.146	534.52
771.333	958.45
771.519	-616.44
771.705	456.7
771.891	-1126.38
772.078	5040.05
772.264	1310.7
772.45	-288.76
772.636	112.64
772.822	-503.8
773.009	3596.23
773.195	813.04
773.381	729.08
773.567	1484.78
773.753	-751.6
773.939	-1730.53
774.125	-1937.38
774.311	-18.43
774.497	-1562.6
774.683	-839.67
774.869	1757.16
775.055	3196.88
775.241	-1122.29
775.427	411.64
775.613	-987.12
775.799	2301.92
775.985	-1267.69
776.171	38.91
776.357	155.65
776.543	-104.45
776.729	-698.36
776.914	0
777.1	1179.63
777.286	3966.92
777.472	-348.15
777.657	-636.92
777.843	2639.83
778.029	2748.37
778.215	534.52
778.4	-272.38
778.586	3059.67
778.772	1531.88
778.957	890.87
779.143	-1454.06
779.329	-319.48
779.514	-1155.05
779.7	-272.38
779.885	-2179.04
780.071	344.06
780.256	399.35
780.442	106.49
780.627	-2293.72
780.813	921.59
780.998	1658.85
781.184	665.59
781.369	-1480.68
781.555	1021.94
781.74	-337.91
781.925	1730.53
782.111	-1075.18
782.296	-370.68
782.481	337.91
782.667	-411.64
782.852	1130.48
783.037	-593.91
783.223	-475.13
783.408	-311.29
783.593	819.19
783.778	-1224.69
783.963	417.79
784.149	968.69
784.334	-698.36
784.519	-321.53
784.704	-1642.47
784.889	155.65
785.074	-1363.95
785.259	-602.1
785.444	2365.4
785.629	-1597.42
785.814	-2346.97
785.999	-729.08
786.184	2942.93
786.369	-1079.28
786.554	-2502.62
786.739	1142.77
786.924	407.55
787.109	-120.83
787.294	1331.18
787.479	1148.91
787.664	-77.82
787.849	1294.32
788.034	894.96
788.218	1521.64
788.403	225.28
788.588	1144.81
788.773	516.09
788.957	-1050.61
789.142	1540.07
789.327	251.9
789.512	-792.56
789.696	3082.19
789.881	3813.32
790.066	-358.39
790.25	2658.26
790.435	-45.06
790.619	1798.12
790.804	673.78
790.989	219.13
791.173	3188.69
791.358	1210.35
791.542	-763.89
791.727	-583.67
791.911	-530.42
792.096	-1153.01
792.28	-714.74
792.465	-364.54
792.649	-1030.13
792.833	884.72
793.018	-651.25
793.202	919.54
793.386	2623.45
793.571	1689.57
793.755	276.48
793.939	-882.67
794.124	-389.11
794.308	468.98
794.492	-538.62
794.676	-960.5
794.861	-190.46
795.045	1124.33
795.229	-2058.21
795.413	1116.14
795.597	-536.57
795.781	67.58
795.966	2736.09
796.15	-43.01
796.334	4274.11
796.518	2539.48
796.702	-907.25
796.886	851.96
797.07	2453.47
797.254	1466.35
797.438	-403.45
797.622	-509.94
797.806	378.87
797.99	1284.08
798.174	294.91
798.358	2377.69
798.541	2193.37
798.725	2842.58
798.909	231.42
799.093	1124.33
799.277	579.58
799.461	1880.04
799.644	-2881.49
799.828	239.61
800.012	2635.74
800.196	294.91
800.379	98.3
800.563	-1501.16
800.747	2189.28
800.93	-133.12
801.114	-264.19
801.298	-995.31
801.481	2342.88
801.665	2389.98
801.848	-1470.44
802.032	-210.94
802.216	3516.36
802.399	-159.74
802.583	-1443.82
802.766	-1931.23
802.95	731.12
803.133	2258.91
803.317	-1374.19
803.5	-1527.78
803.683	122.88
803.867	-1495.02
804.05	1476.59
804.233	2176.99
804.417	3188.69
804.6	-301.05
804.783	370.68
804.967	2250.72
805.15	874.48
805.333	563.19
805.517	1073.14
805.7	-1159.15
805.883	-30.72
806.066	1802.21
806.249	2158.56
806.432	-1554.41
806.616	335.87
806.799	-1394.67
806.982	-528.38
807.165	618.49
807.348	468.98
807.531	-921.59
807.714	-542.71
807.897	563.19
808.08	952.31
808.263	1593.32
808.446	1398.76
808.629	501.75
808.812	-421.88
808.995	36.86
809.178	2365.4
809.361	1697.77
809.544	1431.53
809.726	3004.37
809.909	1982.43
810.092	1245.17
810.275	1771.49
810.458	3764.17
810.64	1789.92
810.823	1183.73
811.006	477.18
811.189	3002.32
811.371	-585.72
811.554	483.32
811.737	1849.32
811.919	2037.73
812.102	-419.83
812.285	-1531.88
812.467	1214.45
812.65	4.1
812.832	-735.22
813.015	2127.84
813.197	1742.82
813.38	1832.93
813.562	2797.53
813.745	-1175.53
813.927	-1693.67
814.11	1849.32
814.292	-247.8
814.475	-1222.64
814.657	-288.76
814.839	1163.25
815.022	-1091.57
815.204	3651.53
815.386	2551.77
815.569	1931.23
815.751	-2019.3
815.933	2056.16
816.116	1679.33
816.298	1529.83
816.48	-116.73
816.662	-632.82
816.844	475.13
817.027	313.34
817.209	-694.26
817.391	-1304.56
817.573	-141.31
817.755	-55.3
817.937	514.04
818.119	-569.34
818.301	-602.1
818.483	-67.58
818.665	-608.25
818.847	1155.05
819.029	397.31
819.211	-1484.78
819.393	329.72
819.575	3010.51
819.757	2050.02
819.939	866.29
820.121	129.02
820.303	622.58
820.485	3256.27
820.666	2803.67
820.848	2934.74
821.03	208.89
821.212	2007.01
821.394	-1677.29
821.575	923.63
821.757	2627.54
821.939	684.02
822.121	731.12
822.302	3006.42
822.484	1728.49
822.666	-2195.42
822.847	-591.86
823.029	-2818
823.21	1503.21
823.392	-1886.18
823.573	-75.77
823.755	-1236.97
823.937	-1349.61
824.118	-978.93
824.3	5031.86
824.481	-983.02
824.662	-772.08
824.844	137.21
825.025	1351.66
825.207	-1669.09
825.388	94.21
825.569	-1312.75
825.751	-651.25
825.932	2709.46
826.113	-2009.06
826.295	1083.38
826.476	710.65
826.657	-139.26
826.839	-724.98
827.02	870.39
827.201	3618.76
827.382	-217.08
827.563	1167.34
827.744	-456.7
827.926	425.98
828.107	1947.62
828.288	-1388.52
828.469	575.48
828.65	1245.17
828.831	-2129.89
829.012	-112.64
829.193	1980.39
829.374	-690.17
829.555	2381.79
829.736	5621.67
829.917	3143.63
830.098	1558.5
830.279	-2062.3
830.46	-821.24
830.641	108.54
830.822	114.69
831.002	1970.15
831.183	-675.83
831.364	1263.6
831.545	1349.61
831.726	155.65
831.906	194.56
832.087	1034.22
832.268	1038.32
832.449	2334.68
832.629	-1841.12
832.81	-626.68
832.991	-909.3
833.171	737.27
833.352	751.6
833.532	1906.66
833.713	-477.18
833.894	43.01
834.074	-2076.64
834.255	-827.38
834.435	-800.76
834.616	-702.45
834.796	-233.47
834.977	1204.21
835.157	3342.29
835.338	-970.74
835.518	-1822.69
835.698	376.83
835.879	-897.01
836.059	339.96
836.239	147.45
836.42	16.38
836.6	407.55
836.78	-2090.98
836.961	-833.52
837.141	1558.5
837.321	-1214.45
837.501	3538.89
837.682	-841.72
837.862	-305.15
838.042	5713.83
838.222	-770.04
838.402	-405.5
838.582	-223.23
838.763	700.41
838.943	-450.55
839.123	2125.79
839.303	251.9
839.483	1642.47
839.663	-2586.58
839.843	13090.62
840.023	1927.14
840.203	1644.52
840.383	-387.07
840.563	-649.21
840.742	4.1
840.922	-870.39
841.102	999.41
841.282	212.99
841.462	-10.24
841.642	-444.41
841.822	-1570.79
842.001	-2492.38
842.181	720.89
842.361	964.59
842.541	1658.85
842.72	903.15
842.9	-460.79
843.08	401.4
843.259	-505.85
843.439	-260.09
843.619	-909.3
843.798	-73.73
843.978	1128.43
844.157	-753.65
844.337	1114.1
844.517	-841.72
844.696	2504.67
844.876	1339.37
845.055	-1216.49
845.235	1189.87
845.414	153.6
845.593	-1382.38
845.773	-628.73
845.952	-2459.61
846.132	-1603.56
846.311	-1429.48
846.49	870.39
846.67	966.64
846.849	-784.37
847.028	-1486.83
847.208	1079.28
847.387	-1026.03
847.566	2658.26
847.745	-1380.33
847.924	849.91
848.104	878.58
848.283	759.8
848.462	1574.89
848.641	1916.9
848.82	-26.62
848.999	2553.82
849.178	-458.74
849.358	1476.59
849.537	161.79
849.716	-901.11
849.895	-1585.13
850.074	1914.85
850.253	2029.54
850.432	454.65
850.61	-4.1
850.789	-679.93
850.968	2273.25
851.147	2303.96
851.326	-1013.74
851.505	75.77
851.684	612.34
851.863	1794.02
852.041	595.96
852.22	-256
852.399	-903.15
852.578	1122.29
852.756	-1810.4
852.935	-374.78
853.114	1740.77
853.293	-1384.43
853.471	3297.23
853.65	604.15
853.828	-460.79
854.007	-1175.53
854.186	485.37
854.364	1865.7
854.543	536.57
854.721	-686.07
854.9	956.4
855.078	2363.36
855.257	-602.1
855.435	-2955.22
855.614	342.01
855.792	-595.96
855.971	-600.05
856.149	-1968.1
856.327	1062.9
856.506	61.44
856.684	-774.13
856.862	-1122.29
857.041	-3286.99
857.219	1632.23
857.397	-948.21
857.576	-700.41
857.754	-735.22
857.932	1177.58
858.11	-217.08
858.288	-448.51
858.467	-2164.7
858.645	-2007.01
858.823	-446.46
859.001	534.52
859.179	-1552.36
859.357	-1028.08
859.535	698.36
859.713	1353.71
859.891	706.55
860.069	3610.57
860.247	-745.46
860.425	-2377.69
860.603	624.63
860.781	2017.25
860.959	274.43
861.137	-2457.56
861.315	-1441.77
861.493	294.91
861.67	1570.79
861.848	1296.36
862.026	-710.65
862.204	-989.17
862.382	-413.69
862.559	-253.95
862.737	940.02
862.915	1404.91
863.093	-690.17
863.27	1736.68
863.448	1521.64
863.626	4.1
863.803	-354.3
863.981	-1275.88
864.158	-2475.99
864.336	-1091.57
864.514	-1380.33
864.691	-1902.56
864.869	-901.11
865.046	-1816.55
865.224	53.25
865.401	1345.52
865.578	-1028.08
865.756	2308.06
865.933	-2475.99
866.111	1431.53
866.288	-1239.02
866.465	-823.28
866.643	-1708.01
866.82	-1091.57
866.997	-817.14
867.175	-559.1
867.352	-806.9
867.529	-2908.12
867.706	-1165.29
867.884	-174.08
868.061	-319.48
868.238	-778.23
868.415	-1716.2
868.592	-1220.59
868.77	-1134.57
868.947	1056.75
869.124	-946.16
869.301	-2267.1
869.478	-10.24
869.655	-3090.38
869.832	-14.34
870.009	2609.11
870.186	2475.99
870.363	61.44
870.54	38.91
870.717	-538.62
870.894	-282.62
871.071	845.81
871.247	-1812.45
871.424	-942.07
871.601	-274.43
871.778	-784.37
871.955	-399.35
872.132	399.35
872.308	-229.37
872.485	-280.57
872.662	-796.66
872.839	1722.34
873.015	-970.74
873.192	368.63
873.369	-382.97
873.545	-667.64
873.722	94.21
873.898	-124.93
874.075	-542.71
874.252	43.01
874.428	-296.96
874.605	20.48
874.781	-2729.94
874.958	-1394.67
875.134	753.65
875.311	454.65
875.487	602.1
875.663	2181.09
875.84	67.58
876.016	1169.39
876.193	602.1
876.369	-1071.09
876.545	-1095.66
876.722	-1120.24
876.898	-4.1
877.074	344.06
877.25	1112.05
877.427	5722.02
877.603	-507.9
877.779	-561.14
877.955	-342.01
878.132	1992.67
878.308	1417.19
878.484	3186.64
878.66	-1421.29
878.836	126.97
879.012	-73.73
879.188	563.19
879.364	-92.16
879.54	-792.56
879.716	-1617.9
879.892	108.54
880.068	1628.14
880.244	3399.63
880.42	-1179.63
880.596	-272.38
880.772	-688.12
880.948	-833.52
881.124	882.67
881.3	4782.01
881.475	-124.93
881.651	-339.96
881.827	-497.66
882.003	-256
882.178	-2232.29
882.354	-550.9
882.53	-1126.38
882.706	-90.11
882.881	505.85
883.057	-1415.15
883.233	-129.02
883.408	1669.09
883.584	-899.06
883.759	-1765.35
883.935	-1849.32
884.111	-2144.22
884.286	-591.86
884.462	-2369.5
884.637	-862.19
884.813	-1812.45
884.988	-415.74
885.164	3229.65
885.339	-1325.04
885.514	1435.63
885.69	-1126.38
885.865	-1986.53
886.04	673.78
886.216	-886.77
886.391	641.01
886.566	-133.12
886.742	-2162.65
886.917	-159.74
887.092	2140.13
887.267	-1900.51
887.443	-2471.9
887.618	-1169.39
887.793	-1177.58
887.968	81.92
888.143	-1927.14
888.318	-339.96
888.494	894.96
888.669	-284.67
888.844	-137.21
889.019	-616.44
889.194	-708.6
889.369	-1290.22
889.544	-956.4
889.719	1128.43
889.894	2209.76
890.069	223.23
890.243	692.21
890.418	-790.52
890.593	-1415.15
890.768	-145.41
890.943	1566.7
891.118	-675.83
891.293	-217.08
891.467	-1495.02
891.642	2785.24
891.817	-819.19
891.992	192.51
892.166	-1316.84
892.341	1212.4
892.516	-172.03
892.69	-88.06
892.865	-2299.87
893.04	-501.75
893.214	1146.86
893.389	475.13
893.563	2652.12
893.738	3067.86
893.912	-1083.38
894.087	-8.19
894.261	1300.46
894.436	-1431.53
894.61	2473.95
894.785	-147.45
894.959	-782.32
895.134	1746.92
895.308	-1366
895.482	886.77
895.657	-1402.86
895.831	-1134.57
896.005	5601.19
896.18	-913.39
896.354	-178.17
896.528	-2205.66
896.702	-26.62
896.877	1859.56
897.051	-1873.89
897.225	176.13
897.399	321.53
897.573	-907.25
897.747	331.77
897.922	-305.15
898.096	1839.08
898.27	-1482.73
898.444	-940.02
898.618	331.77
898.792	-4.1
898.966	129.02
899.14	401.4
899.314	542.71
899.488	1902.56
899.662	155.65
899.835	237.56
900.009	208.89
900.183	-1599.46
900.357	3733.45
900.531	-843.76
900.705	-1044.46
900.878	-1716.2
901.052	-1116.14
901.226	1214.45
901.4	708.6
901.573	-911.35
901.747	-1556.46
901.921	-243.71
902.095	374.78
902.268	1642.47
902.442	-1351.66
902.615	-2131.94
902.789	1284.08
902.963	5885.86
903.136	-335.87
903.31	2236.38
903.483	-1404.91
903.657	1556.46
903.83	225.28
904.004	-2703.32
904.177	112.64
904.35	-534.52
904.524	-2181.09
904.697	129.02
904.871	256
905.044	1189.87
905.217	4839.35
905.391	3221.45
905.564	927.73
905.737	620.53
905.91	-296.96
906.084	-2263.01
906.257	425.98
906.43	-2422.75
906.603	55.3
906.776	-3344.33
906.949	-1081.33
907.123	-1220.59
907.296	-419.83
907.469	2035.68
907.642	-731.12
907.815	1445.87
907.988	-124.93
908.161	-1066.99
908.334	-1062.9
908.507	907.25
908.68	552.95
908.853	6.14
909.026	-677.88
909.199	-555
909.371	2314.2
909.544	1384.43
909.717	-112.64
909.89	-1267.69
910.063	-1349.61
910.236	-145.41
910.408	1144.81
910.581	-2222.05
910.754	-2281.44
910.927	-2883.54
911.099	53.25
911.272	497.66
911.445	67.58
911.617	-681.97
911.79	1865.7
911.962	-444.41
912.135	-1040.37
912.308	-133.12
912.48	-1699.81
912.653	-1333.23
912.825	-825.33
912.998	-727.03
913.17	1189.87
913.343	1499.11
913.515	-763.89
913.687	-1720.29
913.86	22.53
914.032	1509.35
914.205	-655.35
914.377	-147.45
914.549	-3225.55
914.721	518.14
914.894	-1556.46
915.066	-421.88
915.238	-1572.84
915.41	2052.06
915.583	169.98
915.755	-1703.91
915.927	38.91
916.099	1056.75
916.271	-837.62
916.443	-1998.82
916.616	-2160.61
916.788	22292.14
916.96	2338.78
917.132	-3663.82
917.304	-157.69
917.476	1632.23
917.648	270.33
917.82	-3014.61
917.992	1640.42
918.164	874.48
918.335	251.9
918.507	1132.53
918.679	-2439.13
918.851	1535.98
919.023	-491.51
919.195	73.73
919.366	-2211.81
919.538	-2754.52
919.71	-1658.85
919.882	-1480.68
920.053	-1914.85
920.225	-1320.94
920.397	1544.17
920.568	-1785.83
920.74	-1257.45
920.912	-1165.29
921.083	-1599.46
921.255	-2076.64
921.426	-2140.13
921.598	-264.19
921.77	-1015.79
921.941	-2035.68
922.113	-1959.91
922.284	1198.06
922.455	-1179.63
922.627	-2428.89
922.798	-2125.79
922.97	-1619.94
923.141	-1310.7
923.312	-3483.59
923.484	708.6
923.655	-2551.77
923.826	651.25
923.998	-1269.74
924.169	681.97
924.34	-1601.51
924.511	-149.5
924.683	-266.24
924.854	-1308.65
925.025	-391.16
925.196	1185.77
925.367	759.8
925.538	-34.82
925.709	-276.48
925.881	444.41
926.052	-1329.13
926.223	-720.88
926.394	813.04
926.565	-923.63
926.736	-3514.31
926.907	-1914.85
927.078	329.72
927.248	2066.4
927.419	702.45
927.59	-2783.19
927.761	929.78
927.932	722.93
928.103	-507.9
928.274	-1435.63
928.444	-440.31
928.615	-1251.31
928.786	-1327.08
928.957	-2172.89
929.127	-1255.4
929.298	-8.19
929.469	-1312.75
929.639	-161.79
929.81	-210.94
929.981	-182.27
930.151	227.32
930.322	3153.87
930.492	471.03
930.663	3354.57
930.833	-1910.75
931.004	-425.98
931.174	344.06
931.345	-94.21
931.515	-1861.6
931.686	-389.11
931.856	2039.78
932.027	-2058.21
932.197	749.56
932.367	-1703.91
932.538	1339.37
932.708	-1224.69
932.878	-190.46
933.048	-700.41
933.219	-1267.69
933.389	1845.22
933.559	-1630.18
933.729	-1951.71
933.9	212.99
934.07	-2050.02
934.24	-2471.9
934.41	-36.86
934.58	-133.12
934.75	774.13
934.92	-3096.53
935.09	-75.77
935.26	-1271.79
935.43	2250.72
935.6	-788.47
935.77	505.85
935.94	344.06
936.11	-1320.94
936.28	-1626.09
936.45	1066.99
936.62	-32.77
936.79	432.12
936.96	-671.73
937.129	-913.39
937.299	59.39
937.469	-18.43
937.639	-30.72
937.808	-794.61
937.978	-2334.68
938.148	1386.47
938.317	6.14
938.487	299
938.657	-1464.3
938.826	-1574.89
938.996	-686.07
939.166	-3524.55
939.335	-2181.09
939.505	-110.59
939.674	-1308.65
939.844	-2023.39
940.013	18.43
940.183	-2090.98
940.352	-2015.2
940.522	-735.22
940.691	-1202.16
940.86	729.08
941.03	-999.41
941.199	-30.72
941.368	323.58
941.538	1183.73
941.707	-1816.55
941.876	-595.96
942.046	837.62
942.215	-333.82
942.384	-2136.03
942.553	-522.23
942.722	-874.48
942.892	1490.92
943.061	-2850.77
943.23	323.58
943.399	3444.68
943.568	-684.02
943.737	1744.87
943.906	-137.21
944.075	-1568.74
944.244	1177.58
944.413	-1054.7
944.582	-2789.33
944.751	-73.73
944.92	-536.57
945.089	589.82
945.258	-913.39
945.427	-604.15
945.596	-862.19
945.764	-589.81
945.933	-1210.35
946.102	1099.76
946.271	-839.67
946.44	-872.43
946.608	-1382.38
946.777	-1032.18
946.946	-956.4
947.114	2072.54
947.283	-856.05
947.452	-1720.29
947.62	-1165.29
947.789	958.45
947.958	-1331.18
948.126	198.65
948.295	215.04
948.463	-1015.79
948.632	-1241.07
948.8	-919.54
948.969	-1943.52
949.137	-634.87
949.305	-1761.25
949.474	534.52
949.642	479.22
949.811	321.53
949.979	-462.84
950.147	-2166.75
950.316	-2031.58
950.484	-2306.01
950.652	-1476.59
950.82	1034.22
950.989	-2906.07
951.157	-1738.73
951.325	-2127.84
951.493	1615.85
951.661	763.89
951.83	626.68
951.998	-2496.47
952.166	-692.21
952.334	-1808.36
952.502	2942.93
952.67	919.54
952.838	559.1
953.006	2512.86
953.174	133.12
953.342	147.45
953.51	-458.74
953.678	-710.65
953.846	-2754.52
954.014	-481.27
954.181	2246.62
954.349	-1447.91
954.517	-2041.82
954.685	-1861.6
954.853	-1251.31
955.02	-1816.55
955.188	-2297.82
955.356	-1472.49
955.524	1112.05
955.691	-581.62
955.859	-1804.26
956.027	-659.45
956.194	2736.09
956.362	-1128.43
956.529	645.11
956.697	-1243.12
956.865	466.94
957.032	1374.19
957.2	-2258.91
957.367	-2146.27
957.535	325.63
957.702	808.95
957.87	-2217.95
958.037	131.07
958.204	-1124.33
958.372	1015.79
958.539	100.35
958.706	-442.36
958.874	3049.43
959.041	372.73
959.208	-2080.74
959.376	-1456.11
959.543	872.43
959.71	-247.8
959.877	1189.87
960.044	-284.67
960.212	2662.36
960.379	2971.6
960.546	280.57
960.713	-2623.45
960.88	-704.5
961.047	-69.63
961.214	26470
961.381	2406.36
961.548	-927.73
961.715	-432.12
961.882	-2389.98
962.049	-833.52
962.216	-974.83
962.383	-1376.23
962.55	-1021.94
962.717	1535.98
962.883	778.23
963.05	2529.24
963.217	460.79
963.384	-1251.31
963.551	-559.1
963.717	-1476.59
963.884	-67.58
964.051	366.59
964.218	1300.46
964.384	5576.62
964.551	-1964
964.717	-2645.98
964.884	-829.43
965.051	-1548.26
965.217	-2205.66
965.384	-2746.33
965.55	1040.37
965.717	772.08
965.883	59.39
966.05	-1431.53
966.216	2115.55
966.383	897.01
966.549	-112.64
966.716	-870.39
966.882	-1834.98
967.048	-1460.2
967.215	-2299.87
967.381	-1208.3
967.547	1607.66
967.713	2121.7
967.88	460.79
968.046	-2492.38
968.212	-849.91
968.378	886.77
968.545	-2598.87
968.711	1011.7
968.877	-780.28
969.043	-32.77
969.209	-2052.06
969.375	995.31
969.541	1955.81
969.707	2775
969.873	1208.3
970.039	-860.15
970.205	1658.85
970.371	4822.97
970.537	1654.76
970.703	290.81
970.869	-1054.7
971.035	1697.77
971.201	186.37
971.367	-1691.62
971.532	-628.73
971.698	-518.14
971.864	1333.23
972.03	-1992.67
972.195	-1464.3
972.361	1824.74
972.527	-1406.95
972.693	3250.13
972.858	1439.72
973.024	-1916.9
973.19	-598.01
973.355	176.13
973.521	608.25
973.686	1376.24
973.852	-2529.24
974.017	4235.2
974.183	-2246.62
974.348	606.2
974.514	-2486.23
974.679	-212.99
974.845	-1443.82
975.01	-370.68
975.175	-3078.1
975.341	17659.63
975.506	-335.87
975.672	342.01
975.837	3917.76
976.002	-43.01
976.167	-837.62
976.333	4771.77
976.498	-876.53
976.663	-1826.79
976.828	845.81
976.993	-1181.68
977.159	167.93
977.324	552.95
977.489	3000.27
977.654	10.24
977.819	-1066.99
977.984	-489.46
978.149	2772.95
978.314	1322.99
978.479	-1296.36
978.644	-1935.33
978.809	-839.67
978.974	-1742.82
979.139	1939.43
979.304	-81.92
979.469	-897.01
979.633	-802.8
979.798	-647.16
979.963	-1624.04
980.128	2936.79
980.293	-1906.66
980.457	-1470.44
980.622	-2492.38
980.787	-1767.4
980.951	-223.23
981.116	-405.5
981.281	-1818.6
981.445	-176.13
981.61	780.28
981.775	-1863.65
981.939	-2713.56
982.104	2045.92
982.268	1206.25
982.433	1282.03
982.597	-1654.76
982.762	2525.15
982.926	724.98
983.091	-776.18
983.255	-2605.02
983.419	-1818.6
983.584	1398.76
983.748	-92.16
983.912	-77.82
984.077	1976.29
984.241	2179.04
984.405	-1980.39
984.57	1890.28
984.734	-567.29
984.898	-378.87
985.062	-1279.98
985.226	-1361.9
985.39	2580.44
985.555	-114.69
985.719	1951.71
985.883	208.89
986.047	-1400.81
986.211	645.11
986.375	-73.73
986.539	-1320.94
986.703	-1445.87
986.867	-212.99
987.031	620.53
987.195	-1157.1
987.359	-1677.29
987.523	288.76
987.686	-2119.65
987.85	-1763.3
988.014	466.94
988.178	-1206.25
988.342	714.74
988.506	444.41
988.669	-487.42
988.833	266.24
988.997	651.25
989.16	-561.14
989.324	-210.94
989.488	2912.21
989.651	163.84
989.815	3164.11
989.979	-1077.23
990.142	38.91
990.306	-634.87
990.469	1681.38
990.633	854
990.796	2144.22
990.96	-862.19
991.123	802.8
991.286	1665
991.45	966.64
991.613	-1806.31
991.777	-2293.72
991.94	-2183.13
992.103	503.8
992.267	2850.77
992.43	-929.78
992.593	501.75
992.756	77.82
992.92	632.82
993.083	557.05
993.246	-358.39
993.409	-2832.34
993.572	-2074.59
993.735	-624.63
993.899	321.53
994.062	-442.36
994.225	-1064.94
994.388	208.89
994.551	2506.71
994.714	-370.68
994.877	-567.29
995.04	-1595.37
995.203	-1325.04
995.366	1185.77
995.528	-1314.8
995.691	987.12
995.854	-1511.4
996.017	-673.78
996.18	-2756.57
996.343	-430.07
996.505	1851.36
996.668	684.02
996.831	-565.24
996.994	-438.27
997.156	-321.53
997.319	-1366
997.482	1548.26
997.644	-1812.45
997.807	1157.1
997.97	-2009.06
998.132	-1386.47
998.295	1243.12
998.457	393.21
998.62	-1073.14
998.782	-1767.4
998.945	4.1
999.107	-104.45
999.27	-10.24
999.432	-890.87
999.594	632.82
999.757	1910.75
999.919	233.47
1000.081	-2297.82
1000.244	-337.91
1000.406	-81.92
1000.568	-116.73
1000.731	1843.17
1000.893	1513.45
1001.055	1433.58
1001.217	-651.25
1001.379	-2279.39
1001.542	-1484.78
1001.704	3229.65
1001.866	-845.81
1002.028	1103.86
1002.19	354.3
1002.352	-1107.95
1002.514	-1452.01
1002.676	5474.22
1002.838	1791.97
1003	-630.77
1003.162	-1239.02
1003.324	2179.04
1003.486	1112.05
1003.648	-1226.73
1003.809	-645.11
1003.971	819.19
1004.133	-36.86
1004.295	-284.67
1004.457	-358.39
1004.618	583.67
1004.78	102.4
1004.942	3631.05
1005.104	38.91
1005.265	-1372.14
1005.427	937.97
1005.589	-688.12
1005.75	321.53
1005.912	1996.77
1006.073	2080.74
1006.235	253.95
1006.396	-362.49
1006.558	-364.54
1006.72	-182.27
1006.881	311.29
1007.042	-1239.02
1007.204	-1998.82
1007.365	-1353.71
1007.527	1077.23
1007.688	3135.44
1007.849	-112.64
1008.011	-217.08
1008.172	278.52
1008.333	831.48
1008.495	-475.13
1008.656	-2213.85
1008.817	940.02
1008.978	2486.23
1009.139	-681.97
1009.301	573.43
1009.462	-2600.92
1009.623	1042.42
1009.784	-1286.12
1009.945	178.17
1010.106	935.92
1010.267	145.41
1010.428	-1361.9
1010.589	-2252.77
1010.75	-36.86
1010.911	-1267.69
1011.072	-2344.92
1011.233	825.33
1011.394	-638.97
1011.555	45.06
1011.716	606.2
1011.877	-1320.94
1012.037	366.59
1012.198	-1431.53
1012.359	587.77
1012.52	-1527.78
1012.68	-442.36
1012.841	180.22
1013.002	186.37
1013.163	-862.19
1013.323	290.81
1013.484	-2017.25
1013.644	-1366
1013.805	602.1
1013.966	-573.43
1014.126	2791.38
1014.287	-841.72
1014.447	-364.54
1014.608	1447.91
1014.768	-1300.46
1014.929	1085.42
1015.089	-1345.52
1015.249	165.89
1015.41	-63.49
1015.57	1185.77
1015.731	-2205.66
1015.891	-595.96
1016.051	684.02
1016.211	-657.4
1016.372	1476.59
1016.532	-876.53
1016.692	-294.91
1016.852	542.71
1017.013	-583.67
1017.173	-190.46
1017.333	-1097.71
1017.493	-800.76
1017.653	-1380.33
1017.813	-2062.3
1017.973	-290.81
1018.133	-1607.66
1018.293	-1787.88
1018.453	-464.89
1018.613	-1978.34
1018.773	2144.22
1018.933	-311.29
1019.093	806.9
1019.253	63.49
1019.413	1144.81
1019.573	-2158.56
1019.733	-419.83
1019.892	2027.49
1020.052	-638.97
1020.212	657.4
1020.372	198.65
1020.531	1357.8
1020.691	-245.76
1020.851	327.68
1021.01	61.44
1021.17	206.84
1021.33	-540.66
1021.489	-1826.79
1021.649	-92.16
1021.808	-83.97
1021.968	227.32
1022.127	-2762.71
1022.287	1826.79
1022.446	-729.08
1022.606	684.02
1022.765	-1478.63
1022.925	2711.51
1023.084	-763.89
1023.244	1763.3
1023.403	-645.11
1023.562	-1089.52
1023.722	-552.95
1023.881	-538.62
1024.04	-256
1024.199	575.48
1024.359	75.77
1024.518	-2170.85
1024.677	-837.62
1024.836	-950.26
1024.995	1038.32
1025.154	-1107.95
1025.313	-268.28
1025.473	-1380.33
1025.632	-1423.34
1025.791	763.89
1025.95	-1482.73
1026.109	-921.59
1026.268	370.68
1026.427	1298.41
1026.586	1785.83
1026.744	-81.92
1026.903	6199.2
1027.062	-329.72
1027.221	1120.24
1027.38	335.87
1027.539	1058.8
1027.698	4884.41
1027.856	-1456.11
1028.015	546.81
1028.174	358.39
1028.333	362.49
1028.491	4200.38
1028.65	1386.47
1028.808	3839.94
1028.967	845.81
1029.126	653.3
1029.284	-2039.78
1029.443	874.48
1029.601	-747.51
1029.76	-1644.52
1029.918	-1378.28
1030.077	747.51
1030.235	2256.86
1030.394	-790.52
1030.552	1198.06
1030.711	2516.95
1030.869	-720.88
1031.027	-710.65
1031.186	-2648.02
1031.344	-1267.69
1031.502	-380.92
1031.661	1382.38
1031.819	2070.5
1031.977	1110
1032.135	-1761.25
1032.293	-1093.62
1032.452	-1468.39
1032.61	3719.11
1032.768	-1757.16
1032.926	337.91
1033.084	3178.45
1033.242	-657.4
1033.4	-1564.65
1033.558	802.8
1033.716	-194.56
1033.874	-1095.66
1034.032	-223.23
1034.19	-264.19
1034.348	2310.11
1034.506	-1968.1
1034.664	528.38
1034.822	-1728.49
1034.979	2584.54
1035.137	854
1035.295	-266.24
