Data from Quartz 10 sec exposure (900 SPF and 750LPF in Output, 700SpF Input)_USBC44471_14-42-41-851.txt Node
Date: Wed Jul 29 14:42:41 MDT 2020
User: Montana Instruments
Spectrometer: USBC4447
Scans to average: 1
Trigger mode: 4
Integration Time (sec): 1.000000E1
Electric dark correction enabled: true
Boxcar width: 0
XAxis mode: Wavelengths
Number of Pixels in Spectrum: 3648
>>>>>Begin Spectral Data<<<<<
344.991	-5444.35
345.205	-5444.35
345.419	-5444.35
345.633	-5380.87
345.847	-5372.68
346.061	-353.1
346.275	709.79
346.489	-1416
346.703	-72.53
346.917	-1665.85
347.131	1193.11
347.345	-705.35
347.559	-756.55
347.773	1465.49
347.986	31.91
348.2	2815.1
348.414	-1246.02
348.628	-605
348.842	-992.07
349.056	-1055.56
349.269	326.82
349.483	1356.95
349.697	1584.27
349.911	1397.91
350.125	-1190.72
350.338	449.7
350.552	941.21
350.766	-588.62
350.979	-1585.98
351.193	-578.38
351.407	5440.6
351.621	-236.37
351.834	-1493.82
352.048	2434.18
352.262	-420.69
352.475	3724.4
352.689	1158.3
352.902	1576.08
353.116	-162.64
353.33	-1495.87
353.543	-1151.81
353.757	539.81
353.971	109.74
354.184	378.02
354.398	-576.33
354.611	943.26
354.825	2679.94
355.038	1205.4
355.252	-168.79
355.465	-551.76
355.679	-1925.94
355.892	789.66
356.106	1379.48
356.319	7631.93
356.533	-473.93
356.746	-224.08
356.96	-922.44
357.173	-1489.73
357.386	1477.78
357.6	-805.71
357.813	-1071.94
358.027	-1895.22
358.24	-807.75
358.453	2708.61
358.667	-1389.38
358.88	1008.8
359.094	-1020.74
359.307	306.34
359.52	-420.69
359.733	2106.51
359.947	-2235.19
360.16	1234.07
360.373	1725.58
360.587	-1192.77
360.8	-525.13
361.013	-371.54
361.226	-768.84
361.44	2757.76
361.653	1571.99
361.866	-1016.65
362.079	-2077.49
362.292	93.35
362.506	3605.62
362.719	603.3
362.932	2917.5
363.145	-56.15
363.358	-899.91
363.571	-1276.74
363.785	-389.97
363.998	1248.41
364.211	1866.89
364.424	-1409.86
364.637	1141.91
364.85	-643.92
365.063	1891.47
365.276	162.98
365.489	-1364.8
365.702	-320.34
365.915	355.49
366.128	-416.59
366.341	1971.34
366.554	3343.48
366.767	-768.84
366.98	62.63
367.193	922.78
367.406	-1315.65
367.619	3912.81
367.832	2106.51
368.045	91.31
368.258	427.17
368.471	1010.84
368.684	-2102.07
368.896	-1968.95
369.109	-9.05
369.322	-1215.3
369.535	-203.6
369.748	-1553.21
369.961	-811.85
370.173	-2827.05
370.386	-2659.12
370.599	2669.7
370.812	-490.32
371.025	-889.67
371.237	228.52
371.45	279.72
371.663	779.42
371.876	-725.83
372.088	4959.33
372.301	-766.79
372.514	-1581.89
372.726	588.96
372.939	-394.06
373.152	-424.78
373.364	992.41
373.577	3386.49
373.79	-582.48
374.002	-1078.08
374.215	-2861.87
374.428	-1927.99
374.64	1526.93
374.853	-897.86
375.065	-627.53
375.278	3728.5
375.491	25.77
375.703	1502.36
375.916	-2083.64
376.128	-660.3
376.341	-1487.68
376.553	986.27
376.766	-1413.95
376.978	-1792.83
377.191	742.56
377.403	-1934.14
377.616	3255.42
377.828	4162.67
378.04	-1327.94
378.253	-471.89
378.465	472.23
378.678	1225.88
378.89	-1157.96
379.103	-856.9
379.315	326.82
379.527	-1721.15
379.74	-430.93
379.952	-187.22
380.164	-1715
380.377	2167.95
380.589	173.22
380.801	-50
381.014	1723.54
381.226	1074.33
381.438	95.4
381.65	-1397.57
381.863	-29.52
382.075	-1088.32
382.287	-2319.15
382.499	-1006.41
382.712	-152.4
382.924	181.42
383.136	-992.07
383.348	-3029.8
383.56	74.92
383.772	-1014.6
383.985	189.61
384.197	1416.34
384.409	-619.34
384.621	552.1
384.833	-21.33
385.045	-11.09
385.257	-1372.99
385.469	-615.24
385.681	119.98
385.893	9.39
386.105	-1061.7
386.318	-2573.1
386.53	-441.17
386.742	-3093.29
386.954	-2284.34
387.166	2890.88
387.378	79.02
387.589	-37.72
387.801	-3091.24
388.013	-1510.21
388.225	-1268.55
388.437	-2163.51
388.649	-1776.44
388.861	2595.97
389.073	1076.38
389.285	-621.39
389.497	834.72
389.709	1397.91
389.92	-1274.69
390.132	-904.01
390.344	-789.32
390.556	-627.53
390.768	275.62
390.98	-914.25
391.191	1920.14
391.403	558.24
391.615	351.4
391.827	-1211.2
392.038	-922.44
392.25	-334.67
392.462	-2122.55
392.674	-2034.49
392.885	-1604.41
393.097	-2528.05
393.309	-922.44
393.52	1141.91
393.732	-1813.31
393.944	650.4
394.155	550.05
394.367	-1372.99
394.579	451.75
394.79	-1188.68
395.002	318.63
395.213	-2736.94
395.425	-365.39
395.637	-1084.23
395.848	-2360.11
396.06	478.37
396.271	195.75
396.483	-1217.35
396.694	-205.65
396.906	-541.52
397.117	1350.81
397.329	1492.12
397.54	-865.1
397.752	-1788.73
397.963	-1215.3
398.175	279.72
398.386	1158.3
398.598	-824.14
398.809	-2302.77
399.02	847.01
399.232	814.24
399.443	154.79
399.655	-1045.32
399.866	-1192.77
400.077	-533.33
400.289	1346.71
400.5	-45.91
400.711	941.21
400.923	-1624.89
401.134	-1022.79
401.345	-1809.21
401.556	3466.36
401.768	-1024.84
401.979	-1020.74
402.19	978.08
402.401	-682.83
402.613	240.81
402.824	-834.38
403.035	-2536.24
403.246	-1917.75
403.457	384.16
403.669	144.55
403.88	-1706.81
404.091	-2265.91
404.302	-1268.55
404.513	-650.06
404.724	-983.88
404.935	-916.3
405.146	773.28
405.358	-1893.18
405.569	-1692.48
405.78	-2097.97
405.991	-938.82
406.202	68.78
406.413	-379.73
406.624	-1592.13
406.835	-408.4
407.046	2684.03
407.257	-136.02
407.468	1051.8
407.679	-416.59
407.89	1756.3
408.101	2073.74
408.312	-473.93
408.522	-1977.14
408.733	320.68
408.944	210.09
409.155	-699.21
409.366	1074.33
409.577	-1882.94
409.788	-357.2
409.999	134.31
410.209	-863.05
410.42	173.22
410.631	-1848.12
410.842	-406.35
411.053	5217.37
411.264	1297.56
411.474	-1112.9
411.685	-86.87
411.896	-1532.73
412.107	-2208.56
412.317	-1096.52
412.528	1967.24
412.739	-2229.04
412.949	-1401.66
413.16	-0.85
413.371	2276.49
413.581	1129.63
413.792	-615.24
414.003	3769.46
414.213	1760.4
414.424	-2106.17
414.635	-459.6
414.845	-1131.33
415.056	-93.01
415.266	-1700.67
415.477	-2468.66
415.687	763.04
415.898	488.61
416.109	-1667.9
416.319	425.12
416.53	-2757.42
416.74	214.18
416.951	-1340.22
417.161	23.72
417.372	19.63
417.582	629.92
417.792	1676.43
418.003	2163.85
418.213	-731.98
418.424	431.27
418.634	-1620.8
418.844	1082.52
419.055	1959.05
419.265	-1170.24
419.476	615.59
419.686	-1000.26
419.896	-9.05
420.107	-1297.22
420.317	-688.97
420.527	70.83
420.738	-301.9
420.948	1000.6
421.158	1455.25
421.368	-605
421.579	-424.78
421.789	-1231.68
421.999	-3273.51
422.209	-328.53
422.419	-574.28
422.63	-226.13
422.84	-473.93
423.05	-1278.79
423.26	-1133.38
423.47	-193.36
423.681	-2081.59
423.891	855.2
424.101	1631.38
424.311	-807.75
424.521	-408.4
424.731	-834.38
424.941	-707.4
425.151	1801.36
425.361	-1794.87
425.571	-2624.3
425.781	3980.4
425.991	836.77
426.201	1741.97
426.411	416.93
426.621	-1381.18
426.831	-2081.59
427.041	101.55
427.251	-363.34
427.461	1180.82
427.671	1131.67
427.881	-895.82
428.091	-256.85
428.301	2483.33
428.511	-27.48
428.721	-3003.18
428.93	-396.11
429.14	-1305.41
429.35	326.82
429.56	-1237.83
429.77	-416.59
429.98	-1459.01
430.189	-1147.72
430.399	2700.42
430.609	1559.7
430.819	187.56
431.029	-1551.17
431.238	-992.07
431.448	-889.67
431.658	-2612.01
431.867	-861
432.077	359.59
432.287	-1235.78
432.497	-1008.45
432.706	-150.36
432.916	-484.17
433.125	-3031.85
433.335	-1264.45
433.545	1354.9
433.754	3853.42
433.964	-1420.1
434.174	-959.3
434.383	2219.14
434.593	-1200.96
434.802	959.64
435.012	-1403.71
435.221	251.05
435.431	-627.53
435.64	-1057.61
435.85	-1200.96
436.059	210.09
436.269	722.08
436.478	-1231.68
436.688	-2466.61
436.897	-918.34
437.107	-2306.87
437.316	28242.68
437.525	165.03
437.735	154.79
437.944	56.49
438.154	2581.64
438.363	70.83
438.572	2921.6
438.782	273.57
438.991	-815.94
439.2	-398.16
439.41	-1073.99
439.619	-1157.96
439.828	216.23
440.038	97.45
440.247	2104.46
440.456	-1665.85
440.665	646.3
440.875	896.16
441.084	341.16
441.293	-1825.59
441.502	-1102.66
441.711	-1217.35
441.92	400.55
442.13	-320.34
442.339	-1153.86
442.548	-590.67
442.757	1776.78
442.966	-3021.61
443.175	-1209.15
443.384	1469.59
443.593	1475.73
443.803	-2059.06
444.012	-287.57
444.221	-523.09
444.43	4680.8
444.639	386.21
444.848	2151.56
445.057	-1340.22
445.266	-1524.54
445.475	-2423.6
445.684	-1385.28
445.893	2274.44
446.102	337.06
446.311	-3148.58
446.52	117.93
446.728	2954.37
446.937	-2712.36
447.146	-3470.11
447.355	259.24
447.564	-359.25
447.773	1498.26
447.982	1371.29
448.191	660.64
448.399	-1389.38
448.608	-924.49
448.817	-637.77
449.026	912.54
449.235	-1473.34
449.443	1023.13
449.652	-570.19
449.861	-1055.56
450.07	132.26
450.278	1774.74
450.487	-3150.63
450.696	11.43
450.904	-1485.63
451.113	-887.62
451.322	695.46
451.53	-842.57
451.739	3075.2
451.948	-1229.63
452.156	58.54
452.365	4289.64
452.574	812.19
452.782	93.35
452.991	-641.87
453.199	859.29
453.408	249
453.616	-1600.32
453.825	1313.94
454.033	1367.19
454.242	3292.28
454.45	3566.71
454.659	396.45
454.867	4269.16
455.076	-1164.1
455.284	-897.86
455.493	-1755.96
455.701	-1246.02
455.91	3279.99
456.118	-1086.28
456.326	-2087.73
456.535	2790.53
456.743	1166.49
456.951	-2261.81
457.16	1133.72
457.368	806.05
457.576	-1635.13
457.785	2765.95
457.993	-121.68
458.201	-1467.2
458.41	599.2
458.618	-990.02
458.826	-170.83
459.034	-2960.17
459.243	-1518.4
459.451	150.7
459.659	21.67
459.867	-629.58
460.075	-920.39
460.284	-256.85
460.492	-2298.67
460.7	-500.56
460.908	-803.66
461.116	-2616.11
461.324	-1479.49
461.532	-2411.31
461.741	-2063.16
461.949	-879.43
462.157	2184.33
462.365	-9.05
462.573	-64.34
462.781	482.47
462.989	-813.9
463.197	-1571.65
463.405	-2241.33
463.613	-11.09
463.821	-2446.13
464.029	-19.29
464.237	-1110.85
464.445	-660.3
464.653	865.44
464.861	-299.86
465.069	1449.11
465.276	4908.13
465.484	-721.74
465.692	-674.64
465.9	-979.78
466.108	-705.35
466.316	773.28
466.524	-617.29
466.731	-564.04
466.939	1948.81
467.147	-148.31
467.355	-11.09
467.563	1469.59
467.77	808.09
467.978	-2575.15
468.186	294.05
468.393	2006.16
468.601	-535.37
468.809	-1960.76
469.017	-758.6
469.224	-1880.89
469.432	1002.65
469.64	-1348.42
469.847	-2128.69
470.055	609.44
470.263	-1078.08
470.47	-1205.06
470.678	1338.52
470.885	-269.14
471.093	2446.47
471.3	801.95
471.508	-1137.48
471.716	-535.37
471.923	240.81
472.131	378.02
472.338	-1512.25
472.546	-777.03
472.753	3026.04
472.961	-1442.62
473.168	-138.07
473.375	-441.17
473.583	1115.29
473.79	-635.72
473.998	312.49
474.205	427.17
474.412	1905.81
474.62	-848.71
474.827	-1397.57
475.035	1451.16
475.242	-781.13
475.449	-1565.5
475.657	4201.58
475.864	3218.55
476.071	-19.29
476.278	-1024.84
476.486	-523.09
476.693	255.14
476.9	328.87
477.107	478.37
477.315	-1033.03
477.522	72.87
477.729	1473.68
477.936	-635.72
478.143	-1571.65
478.351	1447.06
478.558	-1444.67
478.765	-527.18
478.972	-375.63
479.179	496.8
479.386	851.1
479.593	824.48
479.8	988.32
480.007	-1784.63
480.215	-236.37
480.422	1076.38
480.629	-2409.26
480.836	1053.85
481.043	3204.22
481.25	-791.37
481.457	-1512.25
481.664	-572.24
481.871	773.28
482.078	-1413.95
482.284	-1469.25
482.491	2151.56
482.698	1862.8
482.905	-1215.3
483.112	-2284.34
483.319	142.5
483.526	72.87
483.733	2188.43
483.94	-2861.87
484.146	-1614.65
484.353	-7
484.56	-570.19
484.767	-3152.68
484.974	2174.09
485.18	1621.14
485.387	-508.75
485.594	-1188.68
485.801	1836.17
486.007	257.19
486.214	-926.54
486.421	-2061.11
486.627	-392.02
486.834	728.22
487.041	703.65
487.247	-1246.02
487.454	-1454.91
487.661	1029.27
487.867	644.26
488.074	-1753.91
488.281	994.46
488.487	-166.74
488.694	-897.86
488.9	-498.51
489.107	-1039.17
489.313	-920.39
489.52	-738.12
489.726	-1651.52
489.933	2722.95
490.139	2782.34
490.346	-484.17
490.552	392.36
490.759	-484.17
490.965	179.37
491.172	16999.34
491.378	-412.5
491.584	83.11
491.791	1754.26
491.997	-170.83
492.204	-342.86
492.41	3370.1
492.616	-1743.67
492.823	-1483.58
493.029	-1198.92
493.235	2352.26
493.442	-222.03
493.648	-807.75
493.854	-803.66
494.06	4744.29
494.267	670.88
494.473	-912.2
494.679	-1227.59
494.885	445.6
495.091	3533.94
495.298	804
495.504	-2562.86
495.71	-131.92
495.916	-1858.36
496.122	2712.71
496.328	455.84
496.535	636.06
496.741	-443.21
496.947	769.18
497.153	-244.56
497.359	509.09
497.565	523.43
497.771	1633.43
497.977	7.34
498.183	-770.89
498.389	769.18
498.595	-1645.37
498.801	607.39
499.007	969.88
499.213	-394.06
499.419	-750.41
499.625	44.2
499.831	3298.42
500.037	-676.68
500.243	-1567.55
500.448	-666.44
500.654	1059.99
500.86	2000.01
501.066	-568.14
501.272	2495.62
501.478	-1948.47
501.684	-813.9
501.889	-1864.5
502.095	-1549.12
502.301	-426.83
502.507	500.9
502.712	-625.48
502.918	-1354.56
503.124	-961.35
503.33	969.88
503.535	-787.27
503.741	70.83
503.947	-418.64
504.152	-367.44
504.358	-2194.23
504.564	-691.02
504.769	457.89
504.975	4586.6
505.181	158.89
505.386	-1778.49
505.592	-734.03
505.797	840.86
506.003	-2657.07
506.208	1875.09
506.414	-453.45
506.619	38.06
506.825	513.19
507.03	-2050.87
507.236	-1073.99
507.441	-56.15
507.647	-815.94
507.852	111.78
508.058	1209.5
508.263	1164.44
508.469	-641.87
508.674	-2233.14
508.879	-529.23
509.085	-95.06
509.29	-1731.39
509.495	-1305.41
509.701	-965.45
509.906	947.36
510.111	-539.47
510.317	1068.19
510.522	398.5
510.727	1985.68
510.933	-762.7
511.138	439.46
511.343	-815.94
511.548	644.26
511.754	-1622.84
511.959	2413.7
512.164	31.91
512.369	3523.7
512.574	3505.27
512.779	-1622.84
512.985	-455.5
513.19	994.46
513.395	72.87
513.6	-985.93
513.805	-219.99
514.01	2145.42
514.215	-203.6
514.42	3060.86
514.625	-551.76
514.83	2727.04
515.035	-256.85
515.24	-99.16
515.445	2976.89
515.65	2106.51
515.855	382.12
516.06	-346.96
516.265	541.86
516.47	1305.75
516.675	263.33
516.88	-2333.49
517.085	265.38
517.29	-678.73
517.495	543.91
517.7	1719.44
517.904	-267.09
518.109	738.46
518.314	-531.28
518.519	-170.83
518.724	740.51
518.928	638.11
519.133	-396.11
519.338	306.34
519.543	433.32
519.747	945.31
519.952	3083.39
520.157	6515.78
520.362	961.69
520.566	2940.03
520.771	-1893.18
520.976	1068.19
521.18	3964.01
521.385	-920.39
521.59	-1076.04
521.794	496.8
521.999	2505.86
522.203	-969.54
522.408	-535.37
522.612	-895.82
522.817	830.62
523.022	2454.66
523.226	-269.14
523.431	-1213.25
523.635	187.56
523.84	2419.85
524.044	-897.86
524.249	1858.7
524.453	3026.04
524.657	244.9
524.862	6315.08
525.066	-940.87
525.271	-209.75
525.475	1217.69
525.679	-189.27
525.884	-2016.05
526.088	1240.22
526.292	2628.74
526.497	175.27
526.701	-787.27
526.905	-324.43
527.11	173.22
527.314	-404.3
527.518	3830.9
527.722	-875.34
527.927	1336.47
528.131	-2079.54
528.335	5870.67
528.539	1881.23
528.744	2874.49
528.948	-1774.39
529.152	-1254.21
529.356	2583.68
529.56	560.29
529.764	144.55
529.968	160.94
530.173	7996.46
530.377	6431.82
530.581	-1594.17
530.785	1825.93
530.989	-455.5
531.193	474.28
531.397	-1276.74
531.601	310.44
531.805	1789.07
532.009	1746.06
532.213	62.63
532.417	871.58
532.621	2079.88
532.825	3591.28
533.029	-11.09
533.233	830.62
533.436	646.3
533.64	265.38
533.844	1836.17
534.048	-719.69
534.252	734.37
534.456	3697.78
534.66	2323.59
534.863	283.81
535.067	298.15
535.271	2579.59
535.475	-467.79
535.679	1670.29
535.882	3425.4
536.086	2118.79
536.29	2419.85
536.493	529.57
536.697	1672.34
536.901	1215.64
537.104	2038.92
537.308	1309.85
537.512	1311.89
537.715	3929.2
537.919	1858.7
538.123	2051.21
538.326	1442.96
538.53	2923.65
538.733	3587.19
538.937	2442.37
539.141	1911.95
539.344	3210.36
539.548	2247.82
539.751	4922.46
539.955	6026.32
540.158	7476.28
540.362	5086.3
540.565	3101.82
540.768	4711.52
540.972	11469.82
541.175	9380.89
541.379	6954.05
541.582	6413.38
541.785	8262.7
541.989	9804.82
542.192	5440.6
542.396	6501.45
542.599	8778.79
542.802	9255.97
543.005	7787.57
543.209	6689.86
543.412	8461.35
543.615	8385.58
543.819	8262.7
544.022	6753.35
544.225	7826.48
544.428	8016.94
544.631	10871.81
544.835	7535.67
545.038	6517.83
545.241	6843.46
545.444	9929.75
545.647	8404.01
545.85	7111.74
546.054	5950.54
546.257	4007.02
546.46	7021.63
546.663	6204.49
546.866	7033.92
547.069	7126.08
547.272	5583.96
547.475	6323.27
547.678	5315.67
547.881	4293.74
548.084	4488.29
548.287	5069.92
548.49	2636.93
548.693	3976.3
548.896	1782.93
549.099	4613.22
549.302	2526.34
549.505	2155.66
549.707	1526.93
549.91	3912.81
550.113	1920.14
550.316	1528.98
550.519	4236.39
550.722	4252.78
550.924	1866.89
551.127	3177.59
551.33	2141.32
551.533	1520.79
551.736	1182.87
551.938	957.6
552.141	2835.58
552.344	611.49
552.546	2978.94
552.749	1569.94
552.952	1774.74
553.154	1715.34
553.357	1891.47
553.56	1576.08
553.762	7025.73
553.965	5895.25
554.168	1852.56
554.37	3941.49
554.573	2514.05
554.775	4318.31
554.978	3212.41
555.18	398.5
555.383	1211.54
555.585	5225.56
555.788	2473.09
555.99	1363.09
556.193	1721.49
556.395	3196.03
556.598	902.3
556.8	1494.16
557.003	1959.05
557.205	5858.39
557.407	1520.79
557.61	2024.59
557.812	2342.02
558.015	4504.68
558.217	1307.8
558.419	2292.87
558.622	3783.79
558.824	2413.7
559.026	785.57
559.228	1559.7
559.431	3290.23
559.633	3372.15
559.835	1674.39
560.037	3218.55
560.24	4787.3
560.442	4185.19
560.644	1299.61
560.846	3429.49
561.048	3583.09
561.25	4455.53
561.453	3140.73
561.655	1993.87
561.857	2505.86
562.059	2026.64
562.261	4693.09
562.463	2827.39
562.665	2692.23
562.867	3798.13
563.069	3892.34
563.271	4926.56
563.473	3427.45
563.675	3120.25
563.877	3421.3
564.079	1948.81
564.281	5426.26
564.483	3878
564.685	2866.3
564.887	2348.17
565.089	4426.86
565.291	4674.66
565.493	1707.15
565.694	5606.49
565.896	1879.18
566.098	4037.74
566.3	5366.87
566.502	2671.75
566.704	5889.1
566.905	636.06
567.107	1375.38
567.309	1246.36
567.511	4344.94
567.712	1404.05
567.914	2561.16
568.116	580.77
568.317	4723.81
568.519	3175.55
568.721	181.42
568.922	158.89
569.124	2518.15
569.326	5094.49
569.527	2272.39
569.729	2352.26
569.93	6734.92
570.132	1940.62
570.334	4301.93
570.535	640.16
570.737	1823.89
570.938	6302.79
571.14	2088.07
571.341	3708.02
571.543	7052.35
571.744	2794.62
571.946	4379.75
572.147	1670.29
572.348	5461.08
572.55	4363.37
572.751	5117.02
572.953	2241.67
573.154	4277.35
573.355	6849.6
573.557	9198.62
573.758	3626.1
573.959	3462.26
574.161	5088.35
574.362	5487.7
574.563	7584.82
574.765	5946.45
574.966	6188.11
575.167	2389.13
575.368	5727.32
575.569	3869.81
575.771	6368.33
575.972	3075.2
576.173	4168.81
576.374	5592.15
576.575	4871.26
576.776	1518.74
576.978	2489.48
577.179	3228.79
577.38	4070.51
577.581	2761.86
577.782	3626.1
577.983	5127.26
578.184	5669.97
578.385	3220.6
578.586	4252.78
578.787	2808.96
578.988	4105.32
579.189	1676.43
579.39	2411.65
579.591	3775.6
579.792	2655.36
579.993	4940.9
580.194	4709.47
580.395	5938.26
580.596	3990.64
580.796	5090.4
580.997	2561.16
581.198	3687.54
581.399	5719.12
581.6	6204.49
581.801	2811.01
582.001	6851.65
582.202	2346.12
582.403	1348.76
582.604	8049.71
582.804	3810.42
583.005	4119.66
583.206	834.72
583.407	5317.72
583.607	3247.23
583.808	2833.54
584.009	4920.42
584.209	4629.6
584.41	1483.92
584.61	3591.28
584.811	3204.22
585.012	2505.86
585.212	1664.15
585.413	3284.09
585.613	3386.49
585.814	2100.36
586.014	5022.81
586.215	2620.55
586.415	3243.13
586.616	2059.4
586.816	2665.6
587.017	4799.59
587.217	1510.55
587.418	6235.21
587.618	2608.26
587.819	2548.87
588.019	1004.7
588.219	599.2
588.42	2950.27
588.62	785.57
588.82	1039.51
589.021	1442.96
589.221	3462.26
589.421	1500.31
589.622	3923.05
589.822	1371.29
590.022	5467.22
590.222	3298.42
590.423	1782.93
590.623	982.17
590.823	2718.85
591.023	2802.82
591.223	705.7
591.423	5844.05
591.624	2649.22
591.824	2247.82
592.024	1080.47
592.224	2124.94
592.424	5491.8
592.624	2239.62
592.824	2722.95
593.024	1932.43
593.224	5104.73
593.424	4670.56
593.624	2415.75
593.824	2380.93
594.024	2876.54
594.224	902.3
594.424	2473.09
594.624	394.4
594.824	1635.47
595.024	1338.52
595.224	2466.95
595.424	793.76
595.624	674.98
595.824	1180.82
596.023	3937.39
596.223	3796.08
596.423	1326.23
596.623	2843.78
596.823	-271.19
597.023	-758.6
597.222	6460.49
597.422	859.29
597.622	-291.66
597.822	844.96
598.021	2299.02
598.221	674.98
598.421	-680.78
598.62	1483.92
598.82	644.26
599.02	4979.81
599.219	4439.14
599.419	2522.24
599.618	500.9
599.818	2569.35
600.018	-662.35
600.217	973.98
600.417	3996.78
600.616	1311.89
600.816	1805.46
601.015	1780.88
601.215	933.02
601.414	793.76
601.614	707.74
601.813	-576.33
602.013	1975.44
602.212	1260.7
602.412	314.53
602.611	2471.04
602.81	1997.96
603.01	3193.98
603.209	1469.59
603.408	-1059.65
603.608	2530.44
603.807	978.08
604.006	6057.04
604.206	87.21
604.405	1518.74
604.604	1909.9
604.803	1483.92
605.003	339.11
605.202	171.18
605.401	746.66
605.6	2401.41
605.8	558.24
605.999	312.49
606.198	1756.3
606.397	2008.2
606.596	758.94
606.795	2901.12
606.994	3705.97
607.193	724.13
607.393	3820.66
607.592	3798.13
607.791	1608.85
607.99	3851.38
608.189	3888.24
608.388	4787.3
608.587	3994.73
608.786	2473.09
608.985	580.77
609.184	2137.23
609.382	3505.27
609.581	2790.53
609.78	4881.5
609.979	4310.12
610.178	2925.69
610.377	2532.48
610.576	441.51
610.775	3116.16
610.973	3316.86
611.172	3890.29
611.371	2837.63
611.57	2260.1
611.769	5049.44
611.967	1608.85
612.166	4660.32
612.365	2630.79
612.564	2952.32
612.762	3179.64
612.961	3413.11
613.16	2112.65
613.358	2950.27
613.557	-287.57
613.756	3038.33
613.954	4398.18
614.153	1236.12
614.351	1535.12
614.55	521.38
614.749	3869.81
614.947	1897.61
615.146	734.37
615.344	2018.44
615.543	-64.34
615.741	2335.88
615.94	3161.21
616.138	830.62
616.337	3038.33
616.535	1160.34
616.733	115.88
616.932	1326.23
617.13	3816.56
617.329	5119.07
617.527	-936.78
617.725	-1557.31
617.924	-1014.6
618.122	380.07
618.32	-822.09
618.519	-1487.68
618.717	2442.37
618.915	2256.01
619.114	1305.75
619.312	64.68
619.51	281.77
619.708	2387.08
619.906	-453.45
620.105	-443.21
620.303	-408.4
620.501	3888.24
620.699	-1715
620.897	933.02
621.095	2118.79
621.293	-1164.1
621.492	1959.05
621.69	54.44
621.888	1033.37
622.086	3341.43
622.284	1254.55
622.482	365.73
622.68	699.55
622.878	222.38
623.076	-27.48
623.274	5.29
623.472	287.91
623.67	1234.07
623.868	-2482.99
624.065	1047.71
624.263	466.08
624.461	1039.51
624.659	-576.33
624.857	3202.17
625.055	2331.78
625.253	-500.56
625.45	-86.87
625.648	136.36
625.846	314.53
626.044	320.68
626.242	449.7
626.439	2172.04
626.637	697.5
626.835	-93.01
627.032	1928.33
627.23	-1545.02
627.428	3456.12
627.626	1270.94
627.823	408.74
628.021	2927.74
628.218	2063.5
628.416	1416.34
628.614	-1284.93
628.811	-1614.65
629.009	-684.87
629.206	-346.96
629.404	-910.15
629.601	201.9
629.799	-1962.81
629.996	3372.15
630.194	1291.41
630.391	1201.3
630.589	-518.99
630.786	2036.88
630.984	363.69
631.181	-2104.12
631.378	-623.44
631.576	2004.11
631.773	-2282.29
631.97	-1420.1
632.168	-1620.8
632.365	289.96
632.562	496.8
632.76	-983.88
632.957	423.08
633.154	119.98
633.352	605.35
633.549	-607.05
633.746	2155.66
633.943	1057.95
634.14	-615.24
634.338	2223.24
634.535	-447.31
634.732	-193.36
634.929	3026.04
635.126	773.28
635.323	-0.85
635.52	2430.09
635.717	474.28
635.915	-252.75
636.112	-197.46
636.309	-1794.87
636.506	-668.49
636.703	-2229.04
636.9	-516.94
637.097	5495.89
637.294	226.47
637.491	-897.86
637.688	2251.91
637.884	-1106.76
638.081	-572.24
638.278	-164.69
638.475	-209.75
638.672	-541.52
638.869	-770.89
639.066	5897.3
639.263	717.98
639.459	814.24
639.656	-2349.87
639.853	-1698.62
640.05	15496.13
640.246	2100.36
640.443	-17.24
640.64	-2208.56
640.837	335.01
641.033	-1854.27
641.23	-17.24
641.427	-158.55
641.623	666.78
641.82	-715.59
642.017	-1155.91
642.213	-447.31
642.41	-506.7
642.606	1191.06
642.803	1340.57
643	388.26
643.196	-1313.6
643.393	2141.32
643.589	345.25
643.786	-1090.37
643.982	4330.6
644.179	1461.4
644.375	-852.81
644.571	-414.54
644.768	-1522.49
644.964	-203.6
645.161	-193.36
645.357	2645.12
645.553	429.22
645.75	2098.31
645.946	181.42
646.143	-23.38
646.339	277.67
646.535	392.36
646.731	1649.81
646.928	-146.26
647.124	-1766.2
647.32	2213
647.516	2020.49
647.713	-1274.69
647.909	-201.55
648.105	-635.72
648.301	-2747.18
648.497	423.08
648.693	-635.72
648.89	-572.24
649.086	-164.69
649.282	-1082.18
649.478	-631.63
649.674	107.69
649.87	1883.28
650.066	1242.26
650.262	-1133.38
650.458	1756.3
650.654	-1280.83
650.85	326.82
651.046	-471.89
651.242	-105.3
651.438	195.75
651.634	-1534.78
651.83	-861
652.026	537.76
652.222	-400.21
652.417	-371.54
652.613	1156.25
652.809	-1551.17
653.005	-938.82
653.201	2518.15
653.397	-1178.44
653.592	-224.08
653.788	-1188.68
653.984	1741.97
654.18	4985.95
654.375	-793.42
654.571	-82.77
654.767	-306
654.962	-1086.28
655.158	-2413.36
655.354	-643.92
655.549	1279.13
655.745	1141.91
655.941	3652.72
656.136	-920.39
656.332	-1520.45
656.527	-195.41
656.723	1535.12
656.918	-2040.63
657.114	-650.06
657.309	-256.85
657.505	1035.42
657.7	1338.52
657.896	-1207.11
658.091	-1178.44
658.287	-926.54
658.482	-2259.76
658.678	-983.88
658.873	302.25
659.068	3552.37
659.264	-600.91
659.459	30900.95
659.654	658.59
659.85	2309.26
660.045	-1817.4
660.24	2010.25
660.436	5516.37
660.631	-115.54
660.826	2102.41
661.021	269.48
661.217	2432.13
661.412	-1043.27
661.607	-2306.87
661.802	-564.04
661.997	-475.98
662.192	490.66
662.388	-2724.65
662.583	-533.33
662.778	414.88
662.973	-1874.74
663.168	-2536.24
663.363	-1073.99
663.558	3943.53
663.753	1256.6
663.948	-2110.26
664.143	-1567.55
664.338	283.81
664.533	988.32
664.728	-430.93
664.923	-1293.12
665.118	31.91
665.313	-1041.22
665.508	1225.88
665.703	1094.81
665.897	1350.81
666.092	394.4
666.287	494.76
666.482	-594.76
666.677	1760.4
666.872	1709.2
667.066	-975.69
667.261	-1221.44
667.456	58.54
667.651	1408.15
667.845	1817.74
668.04	543.91
668.235	-1612.6
668.429	1240.22
668.624	107.69
668.819	-707.4
669.013	-1651.52
669.208	695.46
669.402	-1723.2
669.597	-201.55
669.792	-801.61
669.986	2878.59
670.181	-2194.23
670.375	408.74
670.57	-1715
670.764	-977.73
670.959	-410.45
671.153	-64.34
671.348	-385.87
671.542	2630.79
671.737	-2130.74
671.931	-2691.88
672.125	384.16
672.32	1238.17
672.514	1277.08
672.709	-1624.89
672.903	44.2
673.097	-695.11
673.291	-1141.57
673.486	1596.56
673.68	298.15
673.874	-877.38
674.069	-969.54
674.263	777.37
674.457	1453.2
674.651	756.9
674.845	-774.99
675.04	3964.01
675.234	-1237.83
675.428	-250.71
675.622	-1295.17
675.816	-1715
676.01	-815.94
676.204	-66.39
676.398	-13.14
676.592	-670.54
676.787	-705.35
676.981	130.22
677.175	70.83
677.369	-3275.56
677.563	44.2
677.757	-146.26
677.95	-1344.32
678.144	-2796.33
678.338	-996.17
678.532	881.82
678.726	-2487.09
678.92	3208.31
679.114	158.89
679.308	296.1
679.502	-3570.46
679.695	-2020.15
679.889	-570.19
680.083	-2401.07
680.277	-2456.37
680.471	-277.33
680.664	-1463.1
680.858	425.12
681.052	-131.92
681.245	-1231.68
681.439	769.18
681.633	-951.11
681.826	-488.27
682.02	-899.91
682.214	703.65
682.407	-1162.05
682.601	-830.28
682.795	-383.82
682.988	-461.65
683.182	-1225.54
683.375	-537.42
683.569	-873.29
683.762	834.72
683.956	1963.15
684.149	1840.27
684.343	1887.37
684.536	-1299.27
684.73	134.31
684.923	-2478.9
685.116	-2038.58
685.31	2378.89
685.503	857.25
685.696	-303.95
685.89	1143.96
686.083	-1829.69
686.276	-983.88
686.47	232.62
686.663	-594.76
686.856	-242.51
687.05	1195.16
687.243	-502.61
687.436	1399.96
687.629	1744.02
687.822	472.23
688.016	-705.35
688.209	-1047.37
688.402	531.62
688.595	-101.2
688.788	-2186.04
688.981	-1661.76
689.174	2704.51
689.367	-19.29
689.561	-826.18
689.754	-2575.15
689.947	-537.42
690.14	-0.85
690.333	-3298.08
690.526	-764.75
690.719	1658
690.912	1914
691.104	412.84
691.297	-295.76
691.49	191.66
691.683	-985.93
691.876	-3011.37
692.069	2747.52
692.262	-70.48
692.455	328.87
692.647	-414.54
692.84	-1639.23
693.033	758.94
693.226	484.52
693.419	-1211.2
693.611	-807.75
693.804	142.5
693.997	597.15
694.189	-293.71
694.382	-1231.68
694.575	3132.54
694.767	-64.34
694.96	-1385.28
695.153	-260.95
695.345	439.46
695.538	1662.1
695.731	328.87
695.923	-664.4
696.116	316.58
696.308	1502.36
696.501	-25.43
696.693	2227.34
696.886	-881.48
697.078	-2124.6
697.271	478.37
697.463	677.02
697.655	-183.12
697.848	119.98
698.04	-1090.37
698.233	-2229.04
698.425	-537.42
698.617	1512.6
698.81	-1385.28
699.002	-932.68
699.194	1916.05
699.387	890.01
699.579	-1129.28
699.771	-1975.1
699.963	-2700.08
700.156	-1911.61
700.348	1121.43
700.54	-35.67
700.732	-977.73
700.924	-648.01
701.117	-752.46
701.309	-981.83
701.501	-2132.79
701.693	4281.45
701.885	-1028.93
702.077	1133.72
702.269	474.28
702.461	2004.11
702.653	91.31
702.845	-633.68
703.037	390.31
703.229	2059.4
703.421	-1082.18
703.613	-1325.89
703.805	3505.27
703.997	435.36
704.189	1277.08
704.381	-834.38
704.573	3673.2
704.765	-807.75
704.957	1647.76
705.148	-58.2
705.34	-904.01
705.532	-68.44
705.724	-1094.47
705.916	-2005.81
706.107	1524.88
706.299	375.97
706.491	2098.31
706.682	1746.06
706.874	-672.59
707.066	-469.84
707.258	-1512.25
707.449	-469.84
707.641	6038.61
707.832	109.74
708.024	-695.11
708.216	-283.47
708.407	937.12
708.599	-529.23
708.79	1957
708.982	-1452.86
709.173	-351.06
709.365	-1129.28
709.556	-179.03
709.748	-420.69
709.939	296.1
710.131	529.57
710.322	-2190.13
710.514	2518.15
710.705	-793.42
710.896	339.11
711.088	558.24
711.279	619.68
711.47	2059.4
711.662	1127.58
711.853	-1389.38
712.044	-2429.74
712.236	320.68
712.427	44.2
712.618	-2452.27
712.809	-1207.11
713	-465.74
713.192	1492.12
713.383	-817.99
713.574	425.12
713.765	171.18
713.956	-830.28
714.147	2167.95
714.338	-1733.43
714.53	1744.02
714.721	2587.78
714.912	-1147.72
715.103	-2249.52
715.294	750.75
715.485	1359
715.676	-2372.4
715.867	-2837.29
716.058	-652.11
716.249	1561.75
716.44	-471.89
716.63	-1731.39
716.821	-242.51
717.012	1363.09
717.203	-1301.31
717.394	-897.86
717.585	-2345.78
717.776	-799.56
717.966	-1086.28
718.157	-1321.79
718.348	410.79
718.539	-93.01
718.73	1166.49
718.92	2317.45
719.111	-904.01
719.302	490.66
719.492	-1110.85
719.683	715.94
719.874	-1270.59
720.064	4080.75
720.255	-2208.56
720.446	-351.06
720.636	1612.95
720.827	1299.61
721.017	537.76
721.208	-686.92
721.398	-994.12
721.589	1064.09
721.779	388.26
721.97	-3439.39
722.16	-1426.24
722.351	-2267.95
722.541	-979.78
722.732	1242.26
722.922	1051.8
723.112	1881.23
723.303	-1893.18
723.493	-1852.22
723.683	1223.83
723.874	2346.12
724.064	292.01
724.254	2061.45
724.445	-959.3
724.635	973.98
724.825	-2802.47
725.015	-777.03
725.206	-795.47
725.396	1432.72
725.586	-1516.35
725.776	963.74
725.966	3859.57
726.157	1240.22
726.347	2006.16
726.537	-117.59
726.727	1983.63
726.917	-1286.98
727.107	-1028.93
727.297	-2827.05
727.487	2145.42
727.677	-992.07
727.867	183.46
728.057	-406.35
728.247	984.22
728.437	810.14
728.627	-895.82
728.817	-691.02
729.007	345.25
729.197	693.41
729.387	-742.22
729.576	-533.33
729.766	1641.62
729.956	-371.54
730.146	-990.02
730.336	-1927.99
730.525	-349.01
730.715	-1180.48
730.905	-17.24
731.095	-756.55
731.284	742.56
731.474	1727.63
731.664	-869.19
731.853	-2585.39
732.043	-1332.03
732.233	-1686.33
732.422	1440.92
732.612	-1418.05
732.802	386.21
732.991	152.74
733.181	-2982.7
733.37	-1672
733.56	-607.05
733.749	879.77
733.939	-2329.39
734.128	986.27
734.318	2186.38
734.507	-674.64
734.697	-2552.62
734.886	1545.36
735.076	-1680.19
735.265	1832.08
735.454	437.41
735.644	-1772.35
735.833	-1440.58
736.022	-185.17
736.212	-1203.01
736.401	-609.1
736.59	1068.19
736.779	-547.66
736.969	-2200.37
737.158	273.57
737.347	-1510.21
737.536	-291.66
737.726	-1506.11
737.915	1291.41
738.104	765.09
738.293	-824.14
738.482	19.63
738.671	-1270.59
738.86	-2534.19
739.049	859.29
739.238	-1272.64
739.427	-639.82
739.616	-1954.62
739.806	-1733.43
739.995	-3064.61
740.183	-1946.42
740.372	-33.62
740.561	-631.63
740.75	-3580.7
740.939	218.28
741.128	292.01
741.317	1037.47
741.506	-1104.71
741.695	249
741.884	781.47
742.072	1678.48
742.261	-250.71
742.45	-420.69
742.639	607.39
742.828	294.05
743.016	-752.46
743.205	-1702.72
743.394	-1526.59
743.582	1315.99
743.771	11.43
743.96	750.75
744.148	-127.83
744.337	-136.02
744.526	320.68
744.714	-1164.1
744.903	3693.68
745.091	-197.46
745.28	1610.9
745.468	705.7
745.657	443.56
745.845	195.75
746.034	-1022.79
746.222	-400.21
746.411	-113.49
746.599	500.9
746.788	265.38
746.976	-1422.14
747.165	-785.23
747.353	-131.92
747.541	3921.01
747.73	-2501.42
747.918	1393.81
748.106	742.56
748.295	1449.11
748.483	439.46
748.671	-117.59
748.859	-195.41
749.048	1494.16
749.236	-510.8
749.424	-924.49
749.612	1592.47
749.8	-631.63
749.989	-439.12
750.177	191.66
750.365	679.07
750.553	431.27
750.741	-2368.31
750.929	3642.48
751.117	-639.82
751.305	273.57
751.493	-754.51
751.681	-1944.38
751.869	-322.38
752.057	900.25
752.245	-756.55
752.433	1277.08
752.621	-33.62
752.809	1436.82
752.997	1225.88
753.185	494.76
753.373	-119.64
753.56	-498.51
753.748	879.77
753.936	-164.69
754.124	656.54
754.312	-709.45
754.499	2411.65
754.687	973.98
754.875	1635.47
755.063	-619.34
755.25	1717.39
755.438	2393.22
755.626	1277.08
755.813	-797.51
756.001	1375.38
756.189	-883.53
756.376	-459.6
756.564	68.78
756.751	1158.3
756.939	-533.33
757.127	2743.42
757.314	234.66
757.502	-1395.52
757.689	2256.01
757.877	1193.11
758.064	1461.4
758.251	-715.59
758.439	1535.12
758.626	2835.58
758.814	-590.67
759.001	2237.58
759.188	2165.9
759.376	-1934.14
759.563	1447.06
759.75	1701.01
759.938	-455.5
760.125	-355.15
760.312	187.56
760.5	-9.05
760.687	1125.53
760.874	-754.51
761.061	1291.41
761.248	-2351.92
761.436	4007.02
761.623	-156.5
761.81	617.63
761.997	1551.51
762.184	-365.39
762.371	-623.44
762.558	-33.62
762.745	1848.46
762.932	289.96
763.119	859.29
763.306	425.12
763.493	521.38
763.68	824.48
763.867	2059.4
764.054	-1133.38
764.241	-496.46
764.428	2057.36
764.615	54.44
764.802	87.21
764.989	-969.54
765.176	365.73
765.362	1391.77
765.549	-478.03
765.736	8459.31
765.923	1891.47
766.11	1809.55
766.296	240.81
766.483	-2243.38
766.67	365.73
766.857	1485.97
767.043	-869.19
767.23	842.91
767.417	1985.68
767.603	1174.68
767.79	-301.9
767.976	2757.76
768.163	2280.58
768.35	990.36
768.536	-154.45
768.723	-117.59
768.909	1991.82
769.096	2665.6
769.282	193.7
769.469	-267.09
769.655	2860.16
769.842	1176.73
770.028	-1405.76
770.214	423.08
770.401	593.06
770.587	-441.17
770.774	-2700.08
770.96	-2876.2
771.146	586.91
771.333	1023.13
771.519	-498.51
771.705	468.13
771.891	-879.43
772.078	5012.57
772.264	1348.76
772.45	-367.44
772.636	437.41
772.822	-402.26
773.009	3566.71
773.195	1121.43
773.381	824.48
773.567	1356.95
773.753	-852.81
773.939	-1661.76
774.125	-1895.22
774.311	-13.14
774.497	-1493.82
774.683	-850.76
774.869	1571.99
775.055	3179.64
775.241	-1127.24
775.427	556.19
775.613	-1047.37
775.799	2223.24
775.985	-1272.64
776.171	83.11
776.357	142.5
776.543	142.5
776.729	-830.28
776.914	-19.29
777.1	1213.59
777.286	3947.63
777.472	-455.5
777.657	-660.3
777.843	2630.79
778.029	2841.73
778.215	527.52
778.4	-238.42
778.586	2892.93
778.772	1533.08
778.957	982.17
779.143	-1348.42
779.329	-191.31
779.514	-1243.97
779.7	-146.26
779.885	-2302.77
780.071	351.4
780.256	586.91
780.442	87.21
780.627	-2175.8
780.813	963.74
780.998	1911.95
781.184	765.09
781.369	-1481.53
781.555	978.08
781.74	-332.62
781.925	1664.15
782.111	-938.82
782.296	-322.38
782.481	482.47
782.667	-185.17
782.852	1199.26
783.037	-439.12
783.223	-676.68
783.408	-312.14
783.593	928.92
783.778	-1022.79
783.963	359.59
784.149	928.92
784.334	-441.17
784.519	-101.2
784.704	-1639.23
784.889	52.39
785.074	-1250.11
785.259	-541.52
785.444	2315.4
785.629	-1786.68
785.814	-2241.33
785.999	-721.74
786.184	3030.14
786.369	-963.4
786.554	-2548.53
786.739	1002.65
786.924	408.74
787.109	-74.58
787.294	1404.05
787.479	1211.54
787.664	-172.88
787.849	1324.18
788.034	849.05
788.218	-183.12
788.403	113.83
788.588	1281.18
788.773	359.59
788.957	-1063.75
789.142	1592.47
789.327	437.41
789.512	-691.02
789.696	3071.1
789.881	3787.89
790.066	-291.66
790.25	2847.87
790.435	-164.69
790.619	1744.02
790.804	812.19
790.989	162.98
791.173	3261.56
791.358	1068.19
791.542	-711.5
791.727	-500.56
791.911	-445.26
792.096	-1073.99
792.28	-652.11
792.465	-252.75
792.649	-695.11
792.833	920.73
793.018	-621.39
793.202	812.19
793.386	2595.97
793.571	1774.74
793.755	294.05
793.939	-625.48
794.124	-179.03
794.308	310.44
794.492	-559.95
794.676	-863.05
794.861	-201.55
795.045	1211.54
795.229	-2102.07
795.413	1119.39
795.597	-545.61
795.781	261.29
795.966	2768
796.15	83.11
796.334	4256.87
796.518	2645.12
796.702	-1043.27
796.886	750.75
797.07	2374.79
797.254	1371.29
797.438	-406.35
797.622	-461.65
797.806	496.8
797.99	1498.26
798.174	386.21
798.358	2473.09
798.541	2102.41
798.725	2870.4
798.909	414.88
799.093	1041.56
799.277	599.2
799.461	1813.65
799.644	-2724.65
799.828	513.19
800.012	2516.1
800.196	257.19
800.379	177.32
800.563	-1147.72
800.747	2182.28
800.93	40.11
801.114	-314.19
801.298	-885.58
801.481	2456.71
801.665	2223.24
801.848	-1579.84
802.032	-248.66
802.216	3673.2
802.399	-43.86
802.583	-1225.54
802.766	-1934.14
802.95	732.32
803.133	1948.81
803.317	-1256.26
803.5	-1559.36
803.683	195.75
803.867	-1366.85
804.05	1277.08
804.233	2243.72
804.417	3193.98
804.6	-267.09
804.783	425.12
804.967	2407.56
805.15	920.73
805.333	724.13
805.517	1164.44
805.7	-1028.93
805.883	-17.24
806.066	1707.15
806.249	2290.82
806.432	-1512.25
806.616	513.19
806.799	-1446.72
806.982	-537.42
807.165	789.66
807.348	418.98
807.531	-840.52
807.714	-498.51
807.897	775.33
808.08	1059.99
808.263	1883.28
808.446	1528.98
808.629	400.55
808.812	-525.13
808.995	236.71
809.178	2331.78
809.361	1782.93
809.544	1477.78
809.726	3132.54
809.909	1764.5
810.092	1436.82
810.275	1762.45
810.458	3976.3
810.64	1838.22
810.823	1318.04
811.006	746.66
811.189	2972.8
811.371	-469.84
811.554	433.32
811.737	1791.12
811.919	2038.92
812.102	-416.59
812.285	-1547.07
812.467	1141.91
812.65	74.92
812.832	-723.79
813.015	2090.12
813.197	1903.76
813.38	1848.46
813.562	2821.25
813.745	-1090.37
813.927	-1645.37
814.11	1780.88
814.292	-250.71
814.475	-979.78
814.657	-303.95
814.839	1096.86
815.022	-1073.99
815.204	3654.77
815.386	2624.64
815.569	2133.13
815.751	-1975.1
815.933	2002.06
816.116	1690.77
816.298	1578.13
816.48	-82.77
816.662	-652.11
816.844	502.95
817.027	238.76
817.209	-719.69
817.391	-1276.74
817.573	-21.33
817.755	23.72
817.937	447.65
818.119	-482.13
818.301	-625.48
818.483	95.4
818.665	-461.65
818.847	1326.23
819.029	502.95
819.211	-1295.17
819.393	322.73
819.575	2995.32
819.757	2208.9
819.939	937.12
820.121	273.57
820.303	609.44
820.485	3306.62
820.666	2899.07
820.848	3058.81
821.03	197.8
821.212	2079.88
821.394	-1737.53
821.575	937.12
821.757	2499.72
821.939	634.02
822.121	877.73
822.302	3341.43
822.484	1797.26
822.666	-2167.6
822.847	-394.06
823.029	-2722.6
823.21	1528.98
823.392	-2038.58
823.573	-37.72
823.755	-1329.99
823.937	-1133.38
824.118	-1010.5
824.3	5065.82
824.481	-930.63
824.662	-578.38
824.844	169.13
825.025	1250.46
825.207	-1655.61
825.388	15.53
825.569	-1289.03
825.751	-670.54
825.932	2561.16
826.113	-1819.45
826.295	1322.13
826.476	754.85
826.657	156.84
826.839	-340.82
827.02	869.53
827.201	3587.19
827.382	-162.64
827.563	1086.62
827.744	-480.08
827.926	810.14
828.107	1959.05
828.288	-1413.95
828.469	658.59
828.65	1256.6
828.831	-2065.21
829.012	97.45
829.193	2020.49
829.374	-682.83
829.555	2182.28
829.736	5665.88
829.917	3030.14
830.098	1672.34
830.279	-2120.5
830.46	-654.16
830.641	253.09
830.822	117.93
831.002	1907.85
831.183	-682.83
831.364	1387.67
831.545	1447.06
831.726	365.73
831.906	33.96
832.087	1363.09
832.268	945.31
832.449	2360.45
832.629	-1678.14
832.81	-600.91
832.991	-1030.98
833.171	935.07
833.352	752.8
833.532	1903.76
833.713	-549.71
833.894	-170.83
834.074	-2016.05
834.255	-672.59
834.435	-813.9
834.616	-564.04
834.796	-113.49
834.977	1406.1
835.157	3384.44
835.338	-985.93
835.518	-1872.7
835.698	345.25
835.879	-883.53
836.059	275.62
836.239	326.82
836.42	97.45
836.6	582.82
836.78	-2126.64
836.961	-774.99
837.141	1496.21
837.321	-1329.99
837.501	3564.66
837.682	-787.27
837.862	-113.49
838.042	5844.05
838.222	-645.96
838.402	-361.3
838.582	-160.59
838.763	677.02
838.943	-394.06
839.123	2339.97
839.303	283.81
839.483	1436.82
839.663	-2558.77
839.843	12747.75
840.023	1881.23
840.203	1402.01
840.383	-303.95
840.563	-553.8
840.742	124.07
840.922	-809.8
841.102	1098.91
841.282	-33.62
841.462	-27.48
841.642	-283.47
841.822	-1514.3
842.001	-2415.41
842.181	740.51
842.361	994.46
842.541	1852.56
842.72	971.93
842.9	-328.53
843.08	441.51
843.259	-189.27
843.439	-197.46
843.619	-701.26
843.798	-119.64
843.978	1127.58
844.157	-592.72
844.337	1313.94
844.517	-828.23
844.696	2557.06
844.876	1217.69
845.055	-1295.17
845.235	1078.43
845.414	347.3
845.593	-1344.32
845.773	-676.68
845.952	-2528.05
846.132	-1737.53
846.311	-1299.27
846.49	933.02
846.67	971.93
846.849	-815.94
847.028	-1401.66
847.208	1021.08
847.387	-863.05
847.566	2829.44
847.745	-1205.06
847.924	781.47
848.104	990.36
848.283	758.94
848.462	1707.15
848.641	2067.6
848.82	19.63
848.999	2493.57
849.178	-402.26
849.358	1592.47
849.537	162.98
849.716	-783.18
849.895	-1504.06
850.074	1944.72
850.253	2274.44
850.432	615.59
850.61	3.24
850.789	-682.83
850.968	2147.47
851.147	2174.09
851.326	-1080.13
851.505	62.63
851.684	453.8
851.863	1846.41
852.041	603.3
852.22	-213.84
852.399	-758.6
852.578	1256.6
852.756	-1876.79
852.935	-455.5
853.114	1719.44
853.293	-1397.57
853.471	3140.73
853.65	793.76
853.828	-471.89
854.007	-1301.31
854.186	638.11
854.364	1778.83
854.543	636.06
854.721	-478.03
854.9	1109.15
855.078	2235.53
855.257	-451.41
855.435	-2980.65
855.614	351.4
855.792	-535.37
855.971	-443.21
856.149	-1663.8
856.327	1000.6
856.506	162.98
856.684	-721.74
856.862	-1043.27
857.041	-3402.53
857.219	1770.64
857.397	-1071.94
857.576	-688.97
857.754	-701.26
857.932	1260.7
858.11	-375.63
858.288	-451.41
858.467	-2241.33
858.645	-1862.46
858.823	-424.78
859.001	472.23
859.179	-1524.54
859.357	-1080.13
859.535	791.71
859.713	1520.79
859.891	918.68
860.069	3593.33
860.247	-762.7
860.425	-2364.21
860.603	560.29
860.781	1991.82
860.959	416.93
861.137	-2507.57
861.315	-1428.29
861.493	279.72
861.67	1838.22
861.848	1447.06
862.026	-748.36
862.204	-963.4
862.382	-418.64
862.559	-267.09
862.737	847.01
862.915	1416.34
863.093	-553.8
863.27	1694.86
863.448	1653.91
863.626	195.75
863.803	-205.65
863.981	-1164.1
864.158	-2452.27
864.336	-1082.18
864.514	-1430.34
864.691	-1946.42
864.869	-994.12
865.046	-1696.57
865.224	148.65
865.401	1592.47
865.578	-1129.28
865.756	2292.87
865.933	-2468.66
866.111	1449.11
866.288	-1317.7
866.465	-541.52
866.643	-1602.36
866.82	-1057.61
866.997	-947.01
867.175	-541.52
867.352	-731.98
867.529	-2994.98
867.706	-1092.42
867.884	-78.68
868.061	-312.14
868.238	-764.75
868.415	-1479.49
868.592	-1176.39
868.77	-1059.65
868.947	1164.44
869.124	-844.62
869.301	-2169.65
869.478	212.14
869.655	-3003.18
869.832	-144.21
870.009	2679.94
870.186	2626.69
870.363	224.42
870.54	52.39
870.717	-465.74
870.894	-203.6
871.071	793.76
871.247	-1737.53
871.424	-1012.55
871.601	-510.8
871.778	-840.52
871.955	-224.08
872.132	464.04
872.308	-138.07
872.485	-283.47
872.662	-506.7
872.839	1807.5
873.015	-942.92
873.192	392.36
873.369	300.2
873.545	-727.88
873.722	205.99
873.898	-31.57
874.075	-564.04
874.252	126.12
874.428	-310.1
874.605	-70.48
874.781	-2767.66
874.958	-1190.72
875.134	795.81
875.311	461.99
875.487	455.84
875.663	2346.12
875.84	220.33
876.016	1019.04
876.193	597.15
876.369	-1092.42
876.545	-1141.57
876.722	-1229.63
876.898	-84.82
877.074	347.3
877.25	1037.47
877.427	5833.81
877.603	-387.92
877.779	-578.38
877.955	-232.27
878.132	2053.26
878.308	1655.95
878.484	3204.22
878.66	-1485.63
878.836	183.46
879.012	-45.91
879.188	494.76
879.364	-80.72
879.54	-602.96
879.716	-1659.71
879.892	191.66
880.068	1619.09
880.244	3611.76
880.42	-1164.1
880.596	-396.11
880.772	-703.31
880.948	-1008.45
881.124	748.7
881.3	4873.31
881.475	-41.81
881.651	-125.78
881.827	-363.34
882.003	-170.83
882.178	-2212.66
882.354	-408.4
882.53	-1076.04
882.706	-97.11
882.881	568.48
883.057	-1555.26
883.233	-105.3
883.408	1801.36
883.584	-1028.93
883.759	-1635.13
883.935	-1749.82
884.111	-1923.9
884.286	-578.38
884.462	-2319.15
884.637	-672.59
884.813	-1762.11
884.988	-430.93
885.164	3290.23
885.339	-1354.56
885.514	1324.18
885.69	-1123.14
885.865	-1903.42
886.04	681.12
886.216	-885.58
886.391	939.16
886.566	-136.02
886.742	-2069.3
886.917	-187.22
887.092	2086.03
887.267	-1901.37
887.443	-2388.78
887.618	-1147.72
887.793	-1073.99
887.968	113.83
888.143	-1805.11
888.318	-324.43
888.494	830.62
888.669	-346.96
888.844	-78.68
889.019	-578.38
889.194	-863.05
889.369	-1121.09
889.544	-750.41
889.719	1059.99
889.894	2157.71
890.069	564.39
890.243	871.58
890.418	-760.65
890.593	-1209.15
890.768	-232.27
890.943	1780.88
891.118	-676.68
891.293	-70.48
891.467	-1370.94
891.642	3007.61
891.817	-834.38
891.992	156.84
892.166	-1323.84
892.341	1014.94
892.516	-203.6
892.69	93.35
892.865	-2186.04
893.04	-375.63
893.214	1250.46
893.389	529.57
893.563	2825.34
893.738	3269.75
893.912	-1006.41
894.087	281.77
894.261	1344.66
894.436	-1346.37
894.61	2432.13
894.785	-52.05
894.959	-144.21
895.134	1741.97
895.308	-1452.86
895.482	986.27
895.657	-1256.26
895.831	-1061.7
896.005	5835.86
896.18	-754.51
896.354	11.43
896.528	-2057.01
896.702	19.63
896.877	1981.58
897.051	-1798.97
897.225	447.65
897.399	320.68
897.573	-840.52
897.747	234.66
897.922	-222.03
898.096	1801.36
898.27	-1635.13
898.444	-746.31
898.618	294.05
898.792	-31.57
898.966	177.32
899.14	634.02
899.314	750.75
899.488	2161.8
899.662	122.02
899.835	292.01
900.009	238.76
900.183	-1612.6
900.357	3650.67
900.531	-699.21
900.705	-828.23
900.878	-1735.48
901.052	-979.78
901.226	922.78
901.4	515.23
901.573	-912.2
901.747	-1317.7
901.921	-50
902.095	167.08
902.268	1778.83
902.442	-1305.41
902.615	-2014.01
902.789	1252.5
902.963	6052.94
903.136	-349.01
903.31	2313.35
903.483	-1372.99
903.657	1774.74
903.83	165.03
904.004	-2540.33
904.177	218.28
904.35	-506.7
904.524	-2272.05
904.697	214.18
904.871	271.53
905.044	1365.14
905.217	4867.17
905.391	3292.28
905.564	986.27
905.737	586.91
905.91	-410.45
906.084	-2253.62
906.257	449.7
906.43	-2399.02
906.603	97.45
906.776	-3218.21
906.949	-1205.06
907.123	-1289.03
907.296	-570.19
907.469	2282.63
907.642	-648.01
907.815	1541.27
907.988	-101.2
908.161	-951.11
908.334	-1100.61
908.507	994.46
908.68	588.96
908.853	119.98
909.026	-723.79
909.199	-459.6
909.371	2299.02
909.544	1490.07
909.717	-31.57
909.89	-1211.2
910.063	-1227.59
910.236	-103.25
910.408	1084.57
910.581	-2259.76
910.754	-2175.8
910.927	-2810.67
911.099	154.79
911.272	478.37
911.445	109.74
911.617	-590.67
911.79	1746.06
911.962	-506.7
912.135	-1004.36
912.308	97.45
912.48	-1846.07
912.653	-1286.98
912.825	-865.1
912.998	-648.01
913.17	1457.3
913.343	1571.99
913.515	-742.22
913.687	-1577.79
913.86	152.74
914.032	1629.33
914.205	-492.37
914.377	-136.02
914.549	-2994.98
914.721	687.26
914.894	-1526.59
915.066	-510.8
915.238	-1796.92
915.41	2241.67
915.583	283.81
915.755	-1700.67
915.927	27.82
916.099	1252.5
916.271	-846.66
916.443	-1952.57
916.616	-2061.11
916.788	22430.55
916.96	2378.89
917.132	-3603.23
917.304	-254.8
917.476	1680.53
917.648	373.92
917.82	-3048.23
917.992	1551.51
918.164	1105.05
918.335	302.25
918.507	1182.87
918.679	-2544.43
918.851	1604.75
919.023	-514.89
919.195	5.29
919.366	-2122.55
919.538	-2642.73
919.71	-1559.36
919.882	-1448.77
920.053	-1770.3
920.225	-1153.86
920.397	1551.51
920.568	-1846.07
920.74	-1358.66
920.912	-1024.84
921.083	-1706.81
921.255	-2054.97
921.426	-2132.79
921.598	-125.78
921.77	-924.49
921.941	-1925.94
922.113	-1911.61
922.284	1369.24
922.455	-1223.49
922.627	-2317.11
922.798	-1950.52
922.97	-1536.83
923.141	-1340.22
923.312	-3380
923.484	582.82
923.655	-2480.94
923.826	763.04
923.998	-1157.96
924.169	828.57
924.34	-1628.99
924.511	-25.43
924.683	-250.71
924.854	-1422.14
925.025	-179.03
925.196	1227.93
925.367	746.66
925.538	224.42
925.709	-424.78
925.881	453.8
926.052	-1436.48
926.223	-803.66
926.394	1115.29
926.565	-926.54
926.736	-3566.37
926.907	-1852.22
927.078	343.21
927.248	2100.36
927.419	578.72
927.59	-2896.68
927.761	873.63
927.932	789.66
928.103	-389.97
928.274	-1209.15
928.444	-598.86
928.615	-1141.57
928.786	-1289.03
928.957	-1927.99
929.127	-1084.23
929.298	60.59
929.469	-1358.66
929.639	-174.93
929.81	-375.63
929.981	-246.61
930.151	171.18
930.322	3052.67
930.492	423.08
930.663	3202.17
930.833	-1561.41
931.004	-449.36
931.174	310.44
931.345	113.83
931.515	-1760.06
931.686	-408.4
931.856	2049.16
932.027	-1950.52
932.197	967.84
932.367	-1860.41
932.538	1148.06
932.708	-1209.15
932.878	-88.92
933.048	-709.45
933.219	-1207.11
933.389	1817.74
933.559	-1708.86
933.729	-1868.6
933.9	285.86
934.07	-1829.69
934.24	-2442.03
934.41	187.56
934.58	-107.35
934.75	572.58
934.92	-2978.6
935.09	212.14
935.26	-1155.91
935.43	2348.17
935.6	-865.1
935.77	591.01
935.94	367.78
936.11	-1162.05
936.28	-1540.93
936.45	1103
936.62	95.4
936.79	425.12
936.96	-566.09
937.129	-797.51
937.299	36.01
937.469	240.81
937.639	-4.95
937.808	-705.35
937.978	-2325.3
938.148	1356.95
938.317	-0.85
938.487	236.71
938.657	-1401.66
938.826	-1635.13
938.996	-621.39
939.166	-3556.13
939.335	-2294.58
939.505	-195.41
939.674	-1209.15
939.844	-1930.04
940.013	175.27
940.183	-2116.41
940.352	-2089.78
940.522	-584.52
940.691	-1043.27
940.86	564.39
941.03	-813.9
941.199	46.25
941.368	384.16
941.538	1258.65
941.707	-1882.94
941.876	-498.51
942.046	908.44
942.215	-90.96
942.384	-2124.6
942.553	-287.57
942.722	-617.29
942.892	1635.47
943.061	-2890.54
943.23	380.07
943.399	3478.65
943.568	-627.53
943.737	2057.36
943.906	-164.69
944.075	-1432.38
944.244	1340.57
944.413	-877.38
944.582	-2659.12
944.751	-64.34
944.92	-482.13
945.089	371.88
945.258	-721.74
945.427	-443.21
945.596	-557.9
945.764	-607.05
945.933	-1358.66
946.102	990.36
946.271	-781.13
946.44	-846.66
946.608	-1434.43
946.777	-1037.13
946.946	-752.46
947.114	1961.1
947.283	-828.23
947.452	-1768.25
947.62	-1057.61
947.789	994.46
947.958	-1221.44
948.126	146.6
948.295	64.68
948.463	-983.88
948.632	-1135.43
948.8	-719.69
948.969	-1860.41
949.137	-772.94
949.305	-1764.15
949.474	857.25
949.642	668.83
949.811	644.26
949.979	-299.86
950.147	-2065.21
950.316	-2007.86
950.484	-2235.19
950.652	-1383.23
950.82	1002.65
950.989	-2978.6
951.157	-1626.94
951.325	-2145.08
951.493	1475.73
951.661	777.37
951.83	740.51
951.998	-2648.88
952.166	-627.53
952.334	-1811.26
952.502	2753.66
952.67	1006.75
952.838	523.43
953.006	2483.33
953.174	81.07
953.342	396.45
953.51	-351.06
953.678	-699.21
953.846	-2704.17
954.014	-377.68
954.181	2126.99
954.349	-1532.73
954.517	-1940.28
954.685	-1907.51
954.853	-1340.22
955.02	-1592.13
955.188	-2134.84
955.356	-1432.38
955.524	1148.06
955.691	-496.46
955.859	-1868.6
956.027	-607.05
956.194	2661.51
956.362	-1241.92
956.529	748.7
956.697	-1358.66
956.865	414.88
957.032	1514.64
957.2	-2014.01
957.367	-2294.58
957.535	433.32
957.702	832.67
957.87	-2241.33
958.037	191.66
958.204	-1125.19
958.372	904.35
958.539	263.33
958.706	-557.9
958.874	3124.35
959.041	416.93
959.208	-2157.36
959.376	-1411.9
959.543	1002.65
959.71	-191.31
959.877	982.17
960.044	-203.6
960.212	2575.49
960.379	3007.61
960.546	162.98
960.713	-2569.01
960.88	-486.22
961.047	-47.96
961.214	26837.78
961.381	2342.02
961.548	-951.11
961.715	-289.62
961.882	-2290.48
962.049	-828.23
962.216	-906.06
962.383	-1442.62
962.55	-961.35
962.717	1594.51
962.883	945.31
963.05	2561.16
963.217	474.28
963.384	-1389.38
963.551	-297.81
963.717	-1434.43
963.884	-9.05
964.051	273.57
964.218	1402.01
964.384	5755.99
964.551	-2001.72
964.717	-2595.63
964.884	-719.69
965.051	-1438.53
965.217	-2231.09
965.384	-2595.63
965.55	1094.81
965.717	804
965.883	-17.24
966.05	-1313.6
966.216	2176.14
966.383	1080.47
966.549	-64.34
966.716	-883.53
966.882	-1868.6
967.048	-1426.24
967.215	-2390.83
967.381	-1284.93
967.547	1858.7
967.713	2204.81
967.88	574.63
968.046	-2497.33
968.212	-713.55
968.378	1113.24
968.545	-2310.96
968.711	1010.84
968.877	-623.44
969.043	-78.68
969.209	-2057.01
969.375	1111.19
969.541	1997.96
969.707	2763.9
969.873	1225.88
970.039	-621.39
970.205	1442.96
970.371	4934.75
970.537	1567.89
970.703	220.33
970.869	-887.62
971.035	1799.31
971.201	56.49
971.367	-1565.5
971.532	-392.02
971.698	-426.83
971.864	1445.01
972.03	-2026.29
972.195	-1327.94
972.361	1979.53
972.527	-1344.32
972.693	3163.26
972.858	1694.86
973.024	-1944.38
973.19	-578.38
973.355	257.19
973.521	621.73
973.686	1338.52
973.852	-2597.68
974.017	4430.95
974.183	-2233.14
974.348	513.19
974.514	-2480.94
974.679	-258.9
974.845	-1545.02
975.01	-324.43
975.175	-2992.94
975.341	17687.45
975.506	-279.38
975.672	529.57
975.837	3931.25
976.002	-99.16
976.167	-947.01
976.333	4901.98
976.498	-1073.99
976.663	-1780.54
976.828	1000.6
976.993	-1014.6
977.159	244.9
977.324	640.16
977.489	3099.77
977.654	-58.2
977.819	-1178.44
977.984	-408.4
978.149	2729.09
978.314	1246.36
978.479	-1274.69
978.644	-2028.34
978.809	-846.66
978.974	-1622.84
979.139	1807.5
979.304	-0.85
979.469	-836.42
979.633	-830.28
979.798	-418.64
979.963	-1561.41
980.128	2911.36
980.293	-1895.22
980.457	-1563.45
980.622	-2423.6
980.787	-1727.29
980.951	-334.67
981.116	-369.49
981.281	-1975.1
981.445	-203.6
981.61	758.94
981.775	-1694.52
981.939	-2732.84
982.104	1967.24
982.268	1315.99
982.433	1404.05
982.597	-1663.8
982.762	2595.97
982.926	672.93
983.091	-684.87
983.255	-2507.57
983.419	-1778.49
983.584	1643.67
983.748	-45.91
983.912	-64.34
984.077	2036.88
984.241	2075.79
984.405	-1927.99
984.57	1895.57
984.734	-615.24
984.898	-230.23
985.062	-1352.51
985.226	-1336.13
985.39	2647.17
985.555	-39.76
985.719	1940.62
985.883	312.49
986.047	-1420.1
986.211	795.81
986.375	165.03
986.539	-1262.4
986.703	-1428.29
986.867	-127.83
987.031	574.63
987.195	-1188.68
987.359	-1745.72
987.523	60.59
987.686	-2163.51
987.85	-1680.19
988.014	517.28
988.178	-1215.3
988.342	754.85
988.506	674.98
988.669	-369.49
988.833	119.98
988.997	808.09
989.16	-463.69
989.324	-285.52
989.488	2964.61
989.651	183.46
989.815	3267.7
989.979	-983.88
990.142	62.63
990.306	-609.1
990.469	1625.23
990.633	1016.99
990.796	2337.93
990.96	-817.99
991.123	717.98
991.286	1717.39
991.45	1080.47
991.613	-1694.52
991.777	-2126.64
991.94	-2104.12
992.103	605.35
992.267	2886.78
992.43	-850.76
992.593	335.01
992.756	232.62
992.92	566.43
993.083	724.13
993.246	-310.1
993.409	-2767.66
993.572	-1950.52
993.735	-566.09
993.899	320.68
994.062	-406.35
994.225	-979.78
994.388	251.05
994.551	2626.69
994.714	-242.51
994.877	-664.4
995.04	-1598.27
995.203	-1286.98
995.366	1234.07
995.528	-1434.43
995.691	801.95
995.854	-1553.21
996.017	-861
996.18	-2485.04
996.343	-541.52
996.505	1658
996.668	742.56
996.831	-541.52
996.994	-623.44
997.156	-344.91
997.319	-1354.56
997.482	1639.57
997.644	-1538.88
997.807	1291.41
997.97	-1983.29
998.132	-1229.63
998.295	1455.25
998.457	433.32
998.62	-1071.94
998.782	-1569.6
998.945	27.82
999.107	-109.4
999.27	-86.87
999.432	-758.6
999.594	533.67
999.757	1883.28
999.919	216.23
1000.081	-2216.76
1000.244	-164.69
1000.406	-297.81
1000.568	-115.54
1000.731	1936.53
1000.893	1584.27
1001.055	1428.63
1001.217	-539.47
1001.379	-2403.12
1001.542	-1332.03
1001.704	3306.62
1001.866	-820.04
1002.028	1080.47
1002.19	537.76
1002.352	-1096.52
1002.514	-1442.62
1002.676	5534.81
1002.838	1758.35
1003	-650.06
1003.162	-1182.53
1003.324	2276.49
1003.486	1205.4
1003.648	-1352.51
1003.809	-580.43
1003.971	978.08
1004.133	70.83
1004.295	-314.19
1004.457	-314.19
1004.618	617.63
1004.78	-35.67
1004.942	3693.68
1005.104	122.02
1005.265	-1469.25
1005.427	861.34
1005.589	-639.82
1005.75	314.53
1005.912	2051.21
1006.073	1979.53
1006.235	154.79
1006.396	-144.21
1006.558	-297.81
1006.72	-160.59
1006.881	380.07
1007.042	-1239.87
1007.204	-1815.35
1007.365	-1375.04
1007.527	1201.3
1007.688	3073.15
1007.849	-13.14
1008.011	-39.76
1008.172	533.67
1008.333	756.9
1008.495	-437.07
1008.656	-2005.81
1008.817	1092.76
1008.978	2526.34
1009.139	-867.14
1009.301	715.94
1009.462	-2655.02
1009.623	1172.63
1009.784	-1303.36
1009.945	177.32
1010.106	967.84
1010.267	220.33
1010.428	-1395.52
1010.589	-2306.87
1010.75	87.21
1010.911	-1237.83
1011.072	-2372.4
1011.233	1006.75
1011.394	-539.47
1011.555	183.46
1011.716	765.09
1011.877	-1200.96
1012.037	400.55
1012.198	-1254.21
1012.359	500.9
1012.52	-1387.33
1012.68	-404.3
1012.841	81.07
1013.002	339.11
1013.163	-861
1013.323	355.49
1013.484	-1717.05
1013.644	-1416
1013.805	773.28
1013.966	-615.24
1014.126	2772.1
1014.287	-803.66
1014.447	-281.43
1014.608	1442.96
1014.768	-1071.94
1014.929	1055.9
1015.089	-1352.51
1015.249	242.85
1015.41	-15.19
1015.57	1064.09
1015.731	-2063.16
1015.891	-684.87
1016.051	588.96
1016.211	-496.46
1016.372	1623.19
1016.532	-813.9
1016.692	-232.27
1016.852	527.52
1017.013	-684.87
1017.173	-95.06
1017.333	-1076.04
1017.493	-762.7
1017.653	-1512.25
1017.813	-2106.17
1017.973	-277.33
1018.133	-1516.35
1018.293	-1821.5
1018.453	-277.33
1018.613	-2181.94
1018.773	2245.77
1018.933	-45.91
1019.093	1008.8
1019.253	-19.29
1019.413	1139.87
1019.573	-2255.67
1019.733	-301.9
1019.892	2194.57
1020.052	-557.9
1020.212	529.57
1020.372	50.35
1020.531	1662.1
1020.691	-248.66
1020.851	322.73
1021.01	193.7
1021.17	271.53
1021.33	-547.66
1021.489	-1790.78
1021.649	-183.12
1021.808	-56.15
1021.968	373.92
1022.127	-2675.5
1022.287	1934.48
1022.446	-641.87
1022.606	525.47
1022.765	-1403.71
1022.925	2624.64
1023.084	-615.24
1023.244	1989.77
1023.403	-420.69
1023.562	-1090.37
1023.722	-500.56
1023.881	-568.14
1024.04	-230.23
1024.199	593.06
1024.359	-11.09
1024.518	-2204.47
1024.677	-789.32
1024.836	-1016.65
1024.995	832.67
1025.154	-1168.2
1025.313	-152.4
1025.473	-1360.7
1025.632	-1262.4
1025.791	877.73
1025.95	-1413.95
1026.109	-811.85
1026.268	152.74
1026.427	1242.26
1026.586	1836.17
1026.744	-117.59
1026.903	6296.65
1027.062	-213.84
1027.221	1260.7
1027.38	351.4
1027.539	1141.91
1027.698	4748.39
1027.856	-1289.03
1028.015	664.74
1028.174	406.69
1028.333	322.73
1028.491	4117.61
1028.65	1387.67
1028.808	3994.73
1028.967	765.09
1029.126	752.8
1029.284	-1903.42
1029.443	978.08
1029.601	-746.31
1029.76	-1565.5
1029.918	-1233.73
1030.077	765.09
1030.235	2507.91
1030.394	-711.5
1030.552	1299.61
1030.711	2935.93
1030.869	-559.95
1031.027	-744.27
1031.186	-2566.96
1031.344	-1188.68
1031.502	-412.5
1031.661	1252.5
1031.819	2239.62
1031.977	1225.88
1032.135	-1766.2
1032.293	-975.69
1032.452	-1571.65
1032.61	3996.78
1032.768	-1841.98
1032.926	9.39
1033.084	3230.84
1033.242	-580.43
1033.4	-1526.59
1033.558	988.32
1033.716	-432.97
1033.874	-1010.5
1034.032	-97.11
1034.19	-418.64
1034.348	2378.89
1034.506	-1907.51
1034.664	570.53
1034.822	-1717.05
1034.979	2610.31
1035.137	892.06
1035.295	-267.09
