Data from undoped LN 10 sec exposure (900 SPF and 750LPF in Output, 700SpF Input)_USBC44471_14-39-08-878.txt Node
Date: Wed Jul 29 14:39:08 MDT 2020
User: Montana Instruments
Spectrometer: USBC4447
Scans to average: 1
Trigger mode: 4
Integration Time (sec): 1.000000E1
Electric dark correction enabled: true
Boxcar width: 0
XAxis mode: Wavelengths
Number of Pixels in Spectrum: 3648
>>>>>Begin Spectral Data<<<<<
344.991	-5429.17
345.205	-5429.17
345.419	-5429.17
345.633	-5423.02
345.847	-5408.69
346.061	-446.46
346.275	843.76
346.489	-1425.39
346.703	-114.69
346.917	-1691.62
347.131	1236.97
347.345	-765.94
347.559	-868.34
347.773	1699.81
347.986	-174.08
348.2	2949.07
348.414	-1243.12
348.628	-839.67
348.842	-1030.13
349.056	-1200.11
349.269	151.55
349.483	1286.12
349.697	1478.63
349.911	1413.1
350.125	-1146.86
350.338	274.43
350.552	788.47
350.766	-741.36
350.979	-1466.35
351.193	-518.14
351.407	5300.14
351.621	-188.41
351.834	-1484.78
352.048	2381.79
352.262	-417.79
352.475	3542.99
352.689	1130.48
352.902	1548.26
353.116	57.34
353.33	-1617.9
353.543	-1196.01
353.757	454.65
353.971	18.43
354.184	231.42
354.398	-382.97
354.611	868.34
354.825	2809.81
355.038	1253.36
355.252	-278.52
355.465	-342.01
355.679	-1830.88
355.892	647.16
356.106	1273.84
356.319	7686.03
356.533	-608.25
356.746	-301.05
356.96	-800.76
357.173	-1454.06
357.386	1329.13
357.6	-919.54
357.813	-1050.61
358.027	-1882.08
358.24	-737.27
358.453	2502.62
358.667	-1300.46
358.88	1101.81
359.094	-1124.33
359.307	407.55
359.52	-507.9
359.733	2371.55
359.947	-2295.77
360.16	1296.36
360.373	1640.42
360.587	-1314.8
360.8	-638.97
361.013	-393.21
361.226	-856.05
361.44	2455.51
361.653	1552.36
361.866	-976.88
362.079	-2197.47
362.292	217.08
362.506	3350.48
362.719	557.05
362.932	2813.91
363.145	16.38
363.358	-1093.62
363.571	-1486.83
363.785	-286.72
363.998	1249.26
364.211	1888.23
364.424	-1343.47
364.637	1159.15
364.85	-696.31
365.063	1916.9
365.276	198.65
365.489	-1531.88
365.702	-258.04
365.915	303.1
366.128	-505.85
366.341	1802.21
366.554	3397.58
366.767	-944.11
366.98	159.74
367.193	1005.55
367.406	-1478.63
367.619	3856.33
367.832	2039.78
368.045	276.48
368.258	483.32
368.471	1009.65
368.684	-2070.5
368.896	-1847.27
369.109	165.89
369.322	-1105.9
369.535	-192.51
369.748	-1550.31
369.961	-720.88
370.173	-2869.2
370.386	-2729.94
370.599	2748.37
370.812	-540.66
371.025	-755.7
371.237	139.26
371.45	292.86
371.663	600.05
371.876	-569.34
372.088	4779.96
372.301	-872.43
372.514	-1576.94
372.726	432.12
372.939	-321.53
373.152	-391.16
373.364	905.2
373.577	3352.52
373.79	-673.78
374.002	-1042.42
374.215	-2906.07
374.428	-1978.34
374.64	1509.35
374.853	-929.78
375.065	-634.87
375.278	3764.17
375.491	-59.39
375.703	1404.91
375.916	-2240.48
376.128	-727.03
376.341	-1734.63
376.553	874.48
376.766	-1449.96
376.978	-1916.9
377.191	694.26
377.403	-1738.73
377.616	3330
377.828	4071.36
378.04	-1429.48
378.253	-511.99
378.465	438.27
378.678	1112.05
378.89	-1277.93
379.103	-925.68
379.315	276.48
379.527	-1656.81
379.74	-583.67
379.952	-280.57
380.164	-1554.41
380.377	2070.5
380.589	24.58
380.801	114.69
381.014	1617.9
381.226	1058.8
381.438	-49.15
381.65	-1503.21
381.863	96.25
382.075	-933.87
382.287	-2232.29
382.499	-980.98
382.712	-71.68
382.924	122.88
383.136	-913.39
383.348	-2942.93
383.56	-30.72
383.772	-966.64
383.985	43.01
384.197	1345.52
384.409	-614.39
384.621	411.64
384.833	14.34
385.045	112.64
385.257	-1372.14
385.469	-569.34
385.681	163.84
385.893	-26.62
386.105	-950.26
386.318	-2568.15
386.53	-423.93
386.742	-3030.99
386.954	-2453.47
387.166	2609.11
387.378	-45.06
387.589	57.34
387.801	-3057.62
388.013	-1486.83
388.225	-1335.28
388.437	-2201.57
388.649	-1818.6
388.861	2428.89
389.073	1107.95
389.285	-714.74
389.497	761.84
389.709	1447.91
389.92	-1308.65
390.132	-1005.55
390.344	-753.65
390.556	-745.46
390.768	305.15
390.98	-1265.64
391.191	1851.36
391.403	497.66
391.615	163.84
391.827	-1269.74
392.038	-1060.85
392.25	-344.06
392.462	-2232.29
392.674	-2015.2
392.885	-1638.37
393.097	-2426.84
393.309	-835.57
393.52	944.11
393.732	-1685.48
393.944	489.46
394.155	280.57
394.367	-1341.42
394.579	444.41
394.79	-1320.94
395.002	0
395.213	-2705.37
395.425	-333.82
395.637	-1118.19
395.848	-2271.2
396.06	403.45
396.271	229.37
396.483	-1271.79
396.694	-276.48
396.906	-526.33
397.117	1374.19
397.329	1454.06
397.54	-774.13
397.752	-1789.92
397.963	-1214.45
398.175	409.59
398.386	1181.68
398.598	-845.81
398.809	-2263.01
399.02	851.96
399.232	722.93
399.443	135.17
399.655	-1132.53
399.866	-1159.15
400.077	-466.94
400.289	1396.71
400.5	-184.32
400.711	952.31
400.923	-1449.96
401.134	-1171.44
401.345	-1933.28
401.556	3264.46
401.768	-1003.5
401.979	-327.67
402.19	876.53
402.401	-645.11
402.613	0
402.824	-774.13
403.035	-2570.2
403.246	-1832.93
403.457	131.07
403.669	120.83
403.88	-1703.91
404.091	-2217.95
404.302	-1546.22
404.513	-641.01
404.724	-1046.51
404.935	-811
405.146	827.38
405.358	-1945.57
405.569	-1783.78
405.78	-2154.46
405.991	-968.69
406.202	108.54
406.413	-503.8
406.624	-1552.36
406.835	-331.77
407.046	2928.6
407.257	-161.79
407.468	1251.31
407.679	-485.37
407.89	1798.12
408.101	1920.99
408.312	-579.58
408.522	-2035.68
408.733	256
408.944	260.09
409.155	-550.9
409.366	1038.32
409.577	-2084.83
409.788	-428.03
409.999	90.11
410.209	-856.05
410.42	22.53
410.631	-1900.51
410.842	-434.17
411.053	5021.62
411.264	1064.94
411.474	-1118.19
411.685	-100.35
411.896	-1544.17
412.107	-2230.24
412.317	-1066.99
412.528	1961.95
412.739	-2361.31
412.949	-1378.28
413.16	63.49
413.371	2123.74
413.581	1146.86
413.792	-544.76
414.003	3690.44
414.213	1634.28
414.424	-2170.85
414.635	-630.77
414.845	-1275.88
415.056	983.03
415.266	-1847.27
415.477	-2445.27
415.687	655.35
415.898	573.43
416.109	-1777.64
416.319	305.15
416.53	-2744.28
416.74	131.07
416.951	-1462.25
417.161	-73.73
417.372	53.25
417.582	653.3
417.792	1548.26
418.003	2316.25
418.213	-733.17
418.424	401.4
418.634	-1650.66
418.844	1114.1
419.055	1882.08
419.265	-1304.56
419.476	524.28
419.686	-966.64
419.896	-47.1
420.107	-1220.59
420.317	-890.87
420.527	16.38
420.738	-511.99
420.948	1009.65
421.158	1396.71
421.368	-712.69
421.579	-393.21
421.789	-1167.34
421.999	-3430.35
422.209	-366.59
422.419	-598.01
422.63	-223.23
422.84	-452.6
423.05	-1134.57
423.26	-1128.43
423.47	-331.77
423.681	-2074.59
423.891	780.28
424.101	1644.52
424.311	-854
424.521	-294.91
424.731	-804.85
424.941	-669.69
425.151	1742.82
425.361	-1830.88
425.571	-2729.94
425.781	3889.09
425.991	782.32
426.201	1529.83
426.411	294.91
426.621	-1519.59
426.831	-2015.2
427.041	49.15
427.251	-466.94
427.461	1398.76
427.671	993.26
427.881	-933.87
428.091	-16.38
428.301	2432.99
428.511	-112.64
428.721	-3117.01
428.93	-593.91
429.14	-1277.93
429.35	223.23
429.56	-1222.64
429.77	-299
429.98	-1404.91
430.189	-1005.55
430.399	2840.53
430.609	1482.73
430.819	245.76
431.029	-1425.39
431.238	-980.98
431.448	-864.24
431.658	-2629.59
431.867	-808.95
432.077	282.62
432.287	-1146.86
432.497	-1122.29
432.706	-131.07
432.916	-356.35
433.125	-2996.18
433.335	-1232.88
433.545	1368.04
433.754	3731.4
433.964	-1345.52
434.174	-1142.77
434.383	2166.75
434.593	-1294.32
434.802	956.4
435.012	-1447.91
435.221	219.13
435.431	-716.79
435.64	-1202.16
435.85	-1193.97
436.059	378.87
436.269	884.72
436.478	-1200.11
436.688	-2306.01
436.897	-960.5
437.107	-2293.72
437.316	28251.73
437.525	129.02
437.735	155.65
437.944	-77.82
438.154	2615.26
438.363	30.72
438.572	2908.12
438.782	210.94
438.991	-997.36
439.2	-321.53
439.41	-1101.81
439.619	-1116.14
439.828	112.64
440.038	18.43
440.247	2078.69
440.456	-1456.11
440.665	548.86
440.875	923.63
441.084	157.69
441.293	-1945.57
441.502	-1165.29
441.711	-1359.85
441.92	450.55
442.13	-430.07
442.339	-1386.47
442.548	-573.43
442.757	1701.86
442.966	-3004.37
443.175	-1179.63
443.384	1429.48
443.593	1517.54
443.803	-2148.32
444.012	-327.67
444.221	-518.14
444.43	4743.1
444.639	436.22
444.848	2138.08
445.057	-1245.16
445.266	-1439.72
445.475	-2435.03
445.684	-1263.6
445.893	2320.35
446.102	167.93
446.311	-3176.4
446.52	77.82
446.728	3028.95
446.937	-2729.94
447.146	-3530.7
447.355	247.8
447.564	-364.54
447.773	1535.98
447.982	1296.36
448.191	534.52
448.399	-1384.43
448.608	-925.68
448.817	-679.93
449.026	980.98
449.235	-1621.99
449.443	993.26
449.652	-610.29
449.861	-1054.7
450.07	278.52
450.278	1818.6
450.487	-3166.16
450.696	-83.97
450.904	-1363.95
451.113	-983.02
451.322	546.81
451.53	-643.06
451.739	2922.45
451.948	-1279.98
452.156	-45.06
452.365	4370.37
452.574	735.22
452.782	147.45
452.991	-704.5
453.199	700.41
453.408	329.72
453.616	-1525.74
453.825	1404.91
454.033	1306.6
454.242	3381.2
454.45	3540.94
454.659	452.6
454.867	4169.66
455.076	-1216.49
455.284	-1023.98
455.493	-1855.46
455.701	-1091.57
455.91	3170.26
456.118	-1026.03
456.326	-2158.56
456.535	2627.54
456.743	1060.85
456.951	-2314.2
457.16	1228.78
457.368	706.55
457.576	-1677.29
457.785	2711.51
457.993	-145.41
458.201	-1425.39
458.41	714.74
458.618	-958.45
458.826	-229.37
459.034	-2965.46
459.243	-1554.41
459.451	43.01
459.659	-110.59
459.867	-671.73
460.075	-944.11
460.284	-176.13
460.492	-2254.81
460.7	-452.6
460.908	-747.51
461.116	-2600.92
461.324	-1511.4
461.532	-2516.95
461.741	-2088.93
461.949	-1044.46
462.157	1945.57
462.365	38.91
462.573	-141.31
462.781	438.27
462.989	-829.43
463.197	-1681.38
463.405	-2359.26
463.613	8.19
463.821	-2490.33
464.029	30.72
464.237	-1271.79
464.445	-792.56
464.653	845.81
464.861	-335.87
465.069	1095.66
465.276	4855.73
465.484	-882.67
465.692	-651.25
465.9	-1007.6
466.108	-616.44
466.316	864.24
466.524	-763.89
466.731	-663.54
466.939	1873.89
467.147	-79.87
467.355	-169.98
467.563	1480.68
467.77	878.58
467.978	-2625.5
468.186	253.95
468.393	1966.05
468.601	-487.42
468.809	-1933.28
469.017	-782.32
469.224	-1828.84
469.432	1124.33
469.64	-1337.32
469.847	-2105.31
470.055	460.79
470.263	-1146.86
470.47	-1288.17
470.678	1409
470.885	-323.58
471.093	2758.61
471.3	880.63
471.508	-1130.48
471.716	-546.81
471.923	307.2
472.131	387.07
472.338	-1353.71
472.546	-888.82
472.753	2877.4
472.961	-1482.73
473.168	-344.06
473.375	-493.56
473.583	1097.71
473.79	-698.36
473.998	83.97
474.205	301.05
474.412	1900.52
474.62	-837.62
474.827	-1464.3
475.035	1380.33
475.242	-903.15
475.449	-1540.07
475.657	4083.65
475.864	3231.69
476.071	-6.14
476.278	-1042.42
476.486	-739.32
476.693	221.18
476.9	413.69
477.107	243.71
477.315	-1130.48
477.522	-57.34
477.729	1583.08
477.936	-716.79
478.143	-1452.01
478.351	1292.27
478.558	-1376.23
478.765	-626.68
478.972	-419.83
479.179	417.79
479.386	727.03
479.593	1009.65
479.8	808.95
480.007	-1773.54
480.215	-321.53
480.422	1062.9
480.629	-2451.42
480.836	1157.1
481.043	3012.56
481.25	-675.83
481.457	-1503.21
481.664	-735.22
481.871	663.54
482.078	-1437.67
482.284	-1531.88
482.491	2170.85
482.698	1923.04
482.905	-1150.96
483.112	-2256.86
483.319	100.35
483.526	231.42
483.733	2318.3
483.94	-2621.4
484.146	-1765.35
484.353	-45.06
484.56	-581.62
484.767	-3067.86
484.974	2152.42
485.18	1773.54
485.387	-471.03
485.594	-1314.8
485.801	1826.79
486.007	274.43
486.214	-1052.66
486.421	-1949.67
486.627	-403.45
486.834	733.17
487.041	559.1
487.247	-1294.32
487.454	-1468.39
487.661	325.63
487.867	514.04
488.074	-1826.79
488.281	1148.91
488.487	-49.15
488.694	-874.48
488.9	-419.83
489.107	-978.93
489.313	-851.95
489.52	-718.84
489.726	-1746.92
489.933	2842.58
490.139	2818.01
490.346	-409.59
490.552	208.89
490.759	-540.66
490.965	94.21
491.172	3293.13
491.378	-294.91
491.584	-30.72
491.791	1681.38
491.997	159.74
492.204	-495.61
492.41	3014.61
492.616	-1677.29
492.823	-1501.16
493.029	-1189.87
493.235	2346.97
493.442	-153.6
493.648	-802.8
493.854	-649.21
494.06	4786.1
494.267	786.42
494.473	-831.48
494.679	-1337.32
494.885	403.45
495.091	3276.75
495.298	782.32
495.504	-2490.33
495.71	-294.91
495.916	-1880.04
496.122	2562.01
496.328	509.94
496.535	911.35
496.741	-448.51
496.947	641.01
497.153	-270.33
497.359	577.53
497.565	530.42
497.771	1873.89
497.977	-110.59
498.183	-829.43
498.389	995.31
498.595	-1597.42
498.801	212.99
499.007	962.55
499.213	-419.83
499.419	-735.22
499.625	-24.58
499.831	3325.9
500.037	-770.04
500.243	-1439.72
500.448	-708.6
500.654	1101.81
500.86	1998.82
501.066	-530.42
501.272	2209.76
501.478	-2043.87
501.684	-528.38
501.889	-1896.42
502.095	-1566.7
502.301	-493.56
502.507	741.36
502.712	-540.66
502.918	-1452.01
503.124	-999.41
503.33	1075.18
503.535	-880.63
503.741	274.43
503.947	-501.75
504.152	-229.37
504.358	-2082.78
504.564	-438.27
504.769	559.1
504.975	4390.85
505.181	8.19
505.386	-1818.6
505.592	-876.53
505.797	919.54
506.003	-2660.31
506.208	1916.9
506.414	-497.66
506.619	90.11
506.825	581.62
507.03	-1992.67
507.236	-1099.76
507.441	333.82
507.647	-968.69
507.852	88.06
508.058	1232.88
508.263	1224.69
508.469	-573.43
508.674	-2299.87
508.879	-452.6
509.085	-139.26
509.29	-1757.16
509.495	-1400.81
509.701	-1032.18
509.906	919.54
510.111	-507.9
510.317	823.28
510.522	227.32
510.727	2031.59
510.933	-782.32
511.138	436.22
511.343	-866.29
511.548	653.3
511.754	-1636.33
511.959	2324.44
512.164	-147.45
512.369	3465.16
512.574	3579.85
512.779	-1632.23
512.985	-626.68
513.19	1071.09
513.395	143.36
513.6	-1030.13
513.805	-235.52
514.01	1929.19
514.215	-329.72
514.42	2987.99
514.625	-526.33
514.83	2699.22
515.035	-202.75
515.24	-161.79
515.445	3155.92
515.65	2037.73
515.855	262.14
516.06	-446.46
516.265	641.01
516.47	1308.65
516.675	96.25
516.88	-2402.27
517.085	206.84
517.29	-505.85
517.495	354.3
517.7	1597.42
517.904	-208.89
518.109	714.74
518.314	-587.77
518.519	-94.21
518.724	747.51
518.928	679.93
519.133	-356.35
519.338	258.04
519.543	335.87
519.747	890.87
519.952	3024.85
520.157	6246.3
520.362	1048.56
520.566	2883.54
520.771	-1972.19
520.976	1142.77
521.18	3983.3
521.385	-1038.32
521.59	-976.88
521.794	636.92
521.999	2242.53
522.203	-1073.14
522.408	-493.56
522.612	-1013.74
522.817	798.71
523.022	2211.81
523.226	-301.05
523.431	-753.65
523.635	114.69
523.84	2127.84
524.044	-655.35
524.249	1779.68
524.453	2865.11
524.657	272.38
524.862	6602.65
525.066	-962.55
525.271	-120.83
525.475	1308.65
525.679	-63.49
525.884	-1837.03
526.088	1273.84
526.292	2643.93
526.497	182.27
526.701	-798.71
526.905	-296.96
527.11	147.45
527.314	-352.25
527.518	3612.62
527.722	-839.67
527.927	1310.7
528.131	-2056.16
528.335	5554.09
528.539	1667.05
528.744	2883.54
528.948	-1765.35
529.152	-1296.36
529.356	2564.06
529.56	409.59
529.764	204.8
529.968	-49.15
530.173	7884.68
530.377	6520.73
530.581	-1650.66
530.785	1687.53
530.989	-419.83
531.193	368.63
531.397	-1282.03
531.601	157.69
531.805	1589.22
532.009	1716.2
532.213	47.1
532.417	845.81
532.621	2017.25
532.825	3397.58
533.029	2.05
533.233	614.39
533.436	587.77
533.64	79.87
533.844	1847.27
534.048	-581.62
534.252	1279.98
534.456	3635.14
534.66	2344.92
534.863	59.39
535.067	430.07
535.271	2521.05
535.475	-294.91
535.679	1347.56
535.882	3303.37
536.086	2007.01
536.29	2267.1
536.493	634.87
536.697	1535.98
536.901	1161.2
537.104	2142.18
537.308	1140.72
537.512	1513.45
537.715	3989.44
537.919	1916.9
538.123	1857.51
538.326	1292.27
538.53	2920.4
538.733	3639.24
538.937	2400.22
539.141	1824.74
539.344	3311.57
539.548	2234.33
539.751	4995
539.955	5939.11
540.158	7436.17
540.362	5210.03
540.565	3147.73
540.768	4777.91
540.972	11362.13
541.175	9285.49
541.379	7088.02
541.582	6438.81
541.785	8247.17
541.989	9699.18
542.192	5324.72
542.396	6604.7
542.599	8722.3
542.802	9279.35
543.005	7729.03
543.209	6922.13
543.412	8296.32
543.615	8441.73
543.819	8245.12
544.022	6606.75
544.225	8249.22
544.428	8263.55
544.631	10835.8
544.835	7628.68
545.038	6487.97
545.241	6895.51
545.444	9928.55
545.647	8519.55
545.85	7294.86
546.054	5988.26
546.257	4093.89
546.46	6778.78
546.663	6336.42
546.866	7055.25
547.069	7106.45
547.272	5478.32
547.475	5978.02
547.678	5500.84
547.881	4323.26
548.084	4761.53
548.287	5308.34
548.49	2617.3
548.693	4284.35
548.896	1820.64
549.099	5005.24
549.302	2711.51
549.505	2111.46
549.707	1566.7
549.91	4059.07
550.113	1943.52
550.316	1546.22
550.519	4294.59
550.722	4175.81
550.924	1787.88
551.127	3215.31
551.33	2113.5
551.533	1443.82
551.736	1132.53
551.938	1132.53
552.141	2781.14
552.344	616.44
552.546	3039.19
552.749	1638.38
552.952	1816.55
553.154	1665
553.357	1875.94
553.56	1466.35
553.762	7122.84
553.965	5953.45
554.168	1906.66
554.37	3979.2
554.573	2602.97
554.775	4368.32
554.978	3106.77
555.18	483.32
555.383	1075.18
555.585	5085.11
555.788	2521.05
555.99	1308.65
556.193	1865.7
556.395	3330
556.598	950.26
556.8	1638.38
557.003	2072.54
557.205	5615.53
557.407	1431.53
557.61	1982.43
557.812	2224.09
558.015	4575.16
558.217	1714.15
558.419	2246.62
558.622	3831.75
558.824	2256.86
559.026	919.54
559.228	1765.35
559.431	3330
559.633	3186.64
559.835	1757.16
560.037	3307.47
560.24	4777.91
560.442	4095.94
560.644	1439.72
560.846	3307.47
561.048	3612.62
561.25	4466.62
561.453	3121.1
561.655	2021.35
561.857	2482.14
562.059	2064.35
562.261	4435.9
562.463	2887.64
562.665	2711.51
562.867	3790.79
563.069	3637.19
563.271	4949.94
563.473	3508.17
563.675	3157.97
563.877	3196.88
564.079	2078.69
564.281	5388.21
564.483	3809.22
564.685	2955.22
564.887	2389.98
565.089	4685.75
565.291	4634.55
565.493	1753.06
565.694	5332.91
565.896	1853.41
566.098	4120.51
566.3	5392.3
566.502	2779.09
566.704	5652.39
566.905	530.42
567.107	1345.52
567.309	1222.64
567.511	4114.37
567.712	1417.19
567.914	2459.61
568.116	434.17
568.317	4734.9
568.519	3098.58
568.721	241.66
568.922	212.99
569.124	2529.24
569.326	5177.27
569.527	2519
569.729	1931.23
569.93	6850.46
570.132	1966.05
570.334	4177.86
570.535	684.02
570.737	1845.22
570.938	6426.53
571.14	2011.11
571.341	3465.16
571.543	7047.06
571.744	2586.58
571.946	4304.83
572.147	1683.43
572.348	5562.28
572.55	4212.67
572.751	5107.63
572.953	2277.34
573.154	4343.74
573.355	6641.56
573.557	9209.72
573.758	3766.21
573.959	3416.01
574.161	5013.43
574.362	5318.57
574.563	7587.72
574.765	5762.98
574.966	6244.26
575.167	2277.34
575.368	5388.21
575.569	3753.93
575.771	5973.92
575.972	3008.47
576.173	4278.21
576.374	5666.73
576.575	5060.53
576.776	1548.26
576.978	2410.46
577.179	3297.23
577.38	4204.48
577.581	2883.54
577.782	3518.41
577.983	5324.72
578.184	5738.41
578.385	3401.68
578.586	4276.16
578.787	2615.26
578.988	4063.17
579.189	1816.55
579.39	2629.59
579.591	3811.27
579.792	2719.7
579.993	4960.18
580.194	4831.16
580.395	6045.6
580.596	4057.03
580.796	5351.34
580.997	2803.67
581.198	3702.73
581.399	5754.79
581.6	6156.19
581.801	2875.35
582.001	6737.82
582.202	2211.81
582.403	1376.24
582.604	7952.26
582.804	3571.66
583.005	4054.98
583.206	741.36
583.407	5392.3
583.607	3145.68
583.808	2795.48
584.009	4919.22
584.209	4700.09
584.41	1562.6
584.61	3293.13
584.811	3342.29
585.012	2475.99
585.212	1824.74
585.413	3463.12
585.613	3309.52
585.814	2148.32
586.014	5101.49
586.215	2473.95
586.415	3264.46
586.616	2052.06
586.816	2656.22
587.017	4648.89
587.217	1652.71
587.418	6369.18
587.618	2701.27
587.819	2521.05
588.019	970.74
588.219	489.46
588.42	2938.84
588.62	1005.55
588.82	1062.9
589.021	1370.09
589.221	3422.16
589.421	1544.17
589.622	3991.49
589.822	1226.73
590.022	5482.41
590.222	3659.72
590.423	1691.62
590.623	937.97
590.823	3037.14
591.023	2738.13
591.223	727.03
591.423	5894.05
591.624	2631.64
591.824	2209.76
592.024	1126.38
592.224	2113.5
592.424	5332.91
592.624	2492.38
592.824	2764.76
593.024	1912.8
593.224	5003.19
593.424	4593.59
593.624	2418.65
593.824	2291.68
594.024	2785.24
594.224	876.53
594.424	2453.47
594.624	436.22
594.824	1826.79
595.024	1171.44
595.224	2504.67
595.424	720.89
595.624	604.15
595.824	1124.33
596.023	4026.31
596.223	3846.09
596.423	1564.65
596.623	2742.23
596.823	-305.15
597.023	-731.12
597.222	6502.3
597.422	825.33
597.622	-391.16
597.822	958.45
598.021	2240.48
598.221	636.92
598.421	-673.78
598.62	1335.28
598.82	647.16
599.02	4898.74
599.219	4536.25
599.419	2392.03
599.618	477.18
599.818	2584.54
600.018	-559.1
600.217	927.73
600.417	3991.49
600.616	1288.17
600.816	1785.83
601.015	1794.02
601.215	700.41
601.414	684.02
601.614	686.07
601.813	-618.49
602.013	2025.44
602.212	1335.28
602.412	260.09
602.611	2670.55
602.81	1867.75
603.01	3207.12
603.209	1513.45
603.408	-1150.96
603.608	2484.19
603.807	1064.94
604.006	6004.64
604.206	63.49
604.405	1282.03
604.604	1830.88
604.803	1378.28
605.003	397.31
605.202	-94.21
605.401	767.99
605.6	2414.56
605.8	141.31
605.999	376.83
606.198	1617.9
606.397	2015.2
606.596	724.98
606.795	2768.85
606.994	3467.21
607.193	909.3
607.393	3860.42
607.592	3733.45
607.791	1617.9
607.99	4038.59
608.189	3772.36
608.388	4718.52
608.587	3891.14
608.786	2293.73
608.985	595.96
609.184	2203.61
609.382	3416.01
609.581	2818.01
609.78	4929.46
609.979	4329.41
610.178	2840.53
610.377	2621.4
610.576	604.15
610.775	3303.37
610.973	3293.13
611.172	4030.4
611.371	2691.03
611.57	2195.42
611.769	4763.58
611.967	1581.03
612.166	4573.11
612.365	2625.5
612.564	2963.41
612.762	3215.31
612.961	3332.05
613.16	2047.97
613.358	2963.41
613.557	-122.88
613.756	2940.88
613.954	4315.07
614.153	1241.07
614.351	1261.55
614.55	362.49
614.749	3661.77
614.947	1859.56
615.146	665.59
615.344	1693.67
615.543	73.73
615.741	2164.7
615.94	2955.22
616.138	696.31
616.337	3026.9
616.535	1081.33
616.733	129.02
616.932	1540.07
617.13	3735.49
617.329	5115.83
617.527	-911.35
617.725	-1630.18
617.924	-1028.08
618.122	292.86
618.32	-770.04
618.519	-1509.35
618.717	2416.6
618.915	2351.07
619.114	1136.62
619.312	-77.82
619.51	550.9
619.708	2228.19
619.906	-604.15
620.105	-522.23
620.303	-278.52
620.501	4018.11
620.699	-1583.08
620.897	872.43
621.095	1884.13
621.293	-1032.18
621.492	1935.33
621.69	57.34
621.888	948.21
622.086	3407.82
622.284	1060.85
622.482	376.83
622.68	688.12
622.878	122.88
623.076	69.63
623.274	163.84
623.472	389.11
623.67	1271.79
623.868	-2408.41
624.065	964.59
624.263	425.98
624.461	993.26
624.659	-667.64
624.857	3293.13
625.055	2498.52
625.253	-452.6
625.45	-102.4
625.648	120.83
625.846	206.84
626.044	366.59
626.242	397.31
626.439	2191.33
626.637	626.68
626.835	-126.97
627.032	2041.82
627.23	-1462.25
627.428	3477.45
627.626	1200.11
627.823	548.86
628.021	2795.48
628.218	2062.3
628.416	1431.53
628.614	-1183.73
628.811	-1677.29
629.009	-808.95
629.206	-260.09
629.404	-976.88
629.601	106.49
629.799	-1832.93
629.996	3422.16
630.194	1011.7
630.391	927.73
630.589	-733.17
630.786	1970.15
630.984	325.63
631.181	-2195.42
631.378	-800.76
631.576	1957.86
631.773	-2136.03
631.97	-1413.1
632.168	-1671.14
632.365	81.92
632.562	577.53
632.76	-931.83
632.957	401.4
633.154	88.06
633.352	622.58
633.549	-778.23
633.746	2086.88
633.943	829.43
634.14	-600.05
634.338	2451.42
634.535	-428.03
634.732	-161.79
634.929	2893.78
635.126	729.08
635.323	12.29
635.52	2252.77
635.717	538.62
635.915	-442.36
636.112	-77.82
636.309	-1857.51
636.506	-772.08
636.703	-2277.34
636.9	-430.07
637.097	5418.93
637.294	186.37
637.491	-1042.42
637.688	2273.25
637.884	-1007.6
638.081	-688.12
638.278	-47.1
638.475	-432.12
638.672	-432.12
638.869	-1030.13
639.066	6004.64
639.263	708.6
639.459	591.86
639.656	-2443.23
639.853	-1660.9
640.05	4927.41
640.246	2140.13
640.443	-296.96
640.64	-2813.91
640.837	331.77
641.033	-1771.49
641.23	-317.44
641.427	-272.38
641.623	661.49
641.82	-669.69
642.017	-1228.78
642.213	-602.1
642.41	-645.11
642.606	1073.14
642.803	1421.29
643	411.64
643.196	-1329.13
643.393	2246.62
643.589	212.99
643.786	-1153.01
643.982	4167.62
644.179	1398.76
644.375	-899.06
644.571	-530.42
644.768	-1470.44
644.964	-352.25
645.161	-374.78
645.357	2658.26
645.553	462.84
645.75	2232.29
645.946	81.92
646.143	-28.67
646.339	323.58
646.535	370.68
646.731	1388.52
646.928	-110.59
647.124	-1736.68
647.32	2359.26
647.516	2021.35
647.713	-1322.99
647.909	-106.49
648.105	-620.53
648.301	-2787.29
648.497	481.27
648.693	-589.81
648.89	-489.46
649.086	-53.25
649.282	-978.93
649.478	-630.77
649.674	208.89
649.87	1892.32
650.066	1277.93
650.262	-1159.15
650.458	1728.49
650.654	-1425.39
650.85	253.95
651.046	-407.55
651.242	-88.06
651.438	124.93
651.634	-1665
651.83	-901.11
652.026	497.66
652.222	-282.62
652.417	-393.21
652.613	1224.69
652.809	-1531.88
653.005	-954.35
653.201	2234.33
653.397	-1167.34
653.592	-231.42
653.788	-1282.03
653.984	1581.03
654.18	4872.12
654.375	-991.22
654.571	-122.88
654.767	-294.91
654.962	-1023.98
655.158	-2465.75
655.354	-696.31
655.549	1081.33
655.745	1107.95
655.941	3547.08
656.136	-1058.8
656.332	-1556.46
656.527	-225.28
656.723	1431.53
656.918	-1957.86
657.114	-698.36
657.309	-225.28
657.505	786.42
657.7	1316.84
657.896	-1288.17
658.091	-1136.62
658.287	-741.36
658.482	-2336.73
658.678	-1056.75
658.873	184.32
659.068	3305.42
659.264	-530.42
659.459	31968.79
659.654	714.74
659.85	2291.68
660.045	-1621.99
660.24	2002.91
660.436	5427.12
660.631	-319.48
660.826	2097.12
661.021	253.95
661.217	2314.2
661.412	-905.2
661.607	-2269.15
661.802	-532.47
661.997	-528.38
662.192	548.86
662.388	-2635.74
662.583	-688.12
662.778	288.76
662.973	-1918.95
663.168	-2664.41
663.363	-1036.27
663.558	3960.77
663.753	1288.17
663.948	-2240.48
664.143	-1660.9
664.338	190.46
664.533	1042.42
664.728	-600.05
664.923	-1204.21
665.118	139.26
665.313	-946.16
665.508	1308.65
665.703	1200.11
665.897	1142.77
666.092	516.09
666.287	440.31
666.482	-724.98
666.677	2043.87
666.872	1517.54
667.066	-833.52
667.261	-1173.49
667.456	-12.29
667.651	1435.63
667.845	1974.24
668.04	475.13
668.235	-1560.55
668.429	1253.36
668.624	83.97
668.819	-835.57
669.013	-1740.77
669.208	626.68
669.402	-1613.8
669.597	51.2
669.792	-919.54
669.986	2959.31
670.181	-2150.37
670.375	313.34
670.57	-1939.43
670.764	-1017.84
670.959	-663.54
671.153	-2.05
671.348	-262.14
671.542	2445.27
671.737	-2244.57
671.931	-2820.05
672.125	555
672.32	1177.58
672.514	1187.82
672.709	-1458.15
672.903	-137.21
673.097	-710.65
673.291	-1337.32
673.486	1673.19
673.68	165.89
673.874	-962.55
674.069	-1136.62
674.263	757.75
674.457	1484.78
674.651	942.07
674.845	-737.27
675.04	3569.61
675.234	-1210.35
675.428	-241.66
675.622	-1439.72
675.816	-1771.49
676.01	-847.86
676.204	-233.47
676.398	-4.1
676.592	-739.32
676.787	-813.04
676.981	61.44
677.175	90.11
677.369	-3309.52
677.563	32.77
677.757	-186.37
677.95	-1290.22
678.144	-2803.67
678.338	-999.41
678.532	692.21
678.726	-2465.75
678.92	3317.71
679.114	100.35
679.308	126.97
679.502	-3684.3
679.695	-2029.54
679.889	-563.19
680.083	-2385.88
680.277	-2267.1
680.471	-382.97
680.664	-1458.15
680.858	305.15
681.052	-157.69
681.245	-1177.58
681.439	753.65
681.633	-993.26
681.826	-403.45
682.02	-974.83
682.214	749.56
682.407	-1292.27
682.601	-802.8
682.795	-389.11
682.988	-559.1
683.182	-1296.36
683.375	-503.8
683.569	-743.41
683.762	708.6
683.956	2195.42
684.149	1781.73
684.343	1984.48
684.536	-1236.97
684.73	161.79
684.923	-2418.65
685.116	-1982.43
685.31	2314.2
685.503	827.38
685.696	-167.93
685.89	1058.8
686.083	-1779.68
686.276	-1021.94
686.47	147.45
686.663	-677.88
686.856	-114.69
687.05	1232.88
687.243	-524.28
687.436	1538.02
687.629	1769.45
687.822	583.67
688.016	-731.12
688.209	-948.21
688.402	610.29
688.595	-235.52
688.788	-2199.52
688.981	-1851.36
689.174	2955.22
689.367	83.97
689.561	-767.99
689.754	-2596.82
689.947	-581.62
690.14	20.48
690.333	-3246.03
690.526	-690.17
690.719	1529.83
690.912	2000.87
691.104	245.76
691.297	-231.42
691.49	79.87
691.683	-909.3
691.876	-2820.05
692.069	2807.77
692.262	-61.44
692.455	260.09
692.647	-342.01
692.84	-1621.99
693.033	657.4
693.226	477.18
693.419	-946.16
693.611	-651.25
693.804	215.04
693.997	495.61
694.189	-319.48
694.382	-1349.61
694.575	3100.62
694.767	-135.17
694.96	-1515.5
695.153	-280.57
695.345	247.8
695.538	1746.92
695.731	256
695.923	-739.32
696.116	241.66
696.308	1632.23
696.501	22.53
696.693	1691.62
696.886	-944.11
697.078	-1986.53
697.271	516.09
697.463	825.33
697.655	-262.14
697.848	151.55
698.04	-1073.14
698.233	-2215.9
698.425	-571.38
698.617	1476.59
698.81	-1339.37
699.002	-1077.23
699.194	1828.84
699.387	915.44
699.579	-1153.01
699.771	-1970.15
699.963	-2658.26
700.156	-1869.8
700.348	1042.42
700.54	-188.41
700.732	-1124.33
700.924	-608.25
701.117	-696.31
701.309	-1083.38
701.501	-2189.28
701.693	4104.13
701.885	-1019.89
702.077	1335.28
702.269	286.72
702.461	1931.23
702.653	145.41
702.845	-649.21
703.037	503.8
703.229	1974.24
703.421	-968.69
703.613	-1327.08
703.805	3309.52
703.997	475.13
704.189	1269.74
704.381	-849.91
704.573	3848.13
704.765	-794.61
704.957	1552.36
705.148	-133.12
705.34	-956.4
705.532	-63.49
705.724	-1087.47
705.916	-1986.53
706.107	1544.17
706.299	225.28
706.491	2060.26
706.682	1689.57
706.874	-624.63
707.066	-317.44
707.258	-1468.39
707.449	-497.66
707.641	5756.84
707.832	116.73
708.024	-817.14
708.216	-296.96
708.407	888.82
708.599	-491.51
708.79	1904.61
708.982	-1523.69
709.173	-493.56
709.365	-960.5
709.556	-350.2
709.748	-331.77
709.939	188.41
710.131	600.05
710.322	-2263.01
710.514	2787.29
710.705	-624.63
710.896	380.92
711.088	604.15
711.279	692.21
711.47	1886.18
711.662	1167.34
711.853	-1419.24
712.044	-2369.5
712.236	344.06
712.427	-34.82
712.618	-2510.81
712.809	-1249.26
713	-456.7
713.192	1447.91
713.383	-882.67
713.574	311.29
713.765	-18.43
713.956	-827.38
714.147	1959.91
714.338	-1630.18
714.53	1667.05
714.721	2533.34
714.912	-1183.73
715.103	-2115.55
715.294	722.93
715.485	958.45
715.676	-2373.6
715.867	-2781.14
716.058	-667.64
716.249	1548.26
716.44	-331.77
716.63	-1875.94
716.821	-319.48
717.012	1435.63
717.203	-1302.51
717.394	-892.91
717.585	-2332.64
717.776	-753.65
717.966	-1140.72
718.157	-1419.24
718.348	667.64
718.539	18.43
718.73	1114.1
718.92	2166.75
719.111	-944.11
719.302	462.84
719.492	-1066.99
719.683	800.76
719.874	-1200.11
720.064	3958.72
720.255	-2133.98
720.446	-354.3
720.636	1624.04
720.827	1320.94
721.017	432.12
721.208	-677.88
721.398	-829.43
721.589	931.83
721.779	159.74
721.97	-3352.52
722.16	-1490.92
722.351	-2230.24
722.541	-956.4
722.732	1091.57
722.922	1097.71
723.112	1830.88
723.303	-1726.44
723.493	-1699.81
723.683	1138.67
723.874	2332.64
724.064	364.54
724.254	2029.54
724.445	-1056.75
724.635	1042.42
724.825	-2858.96
725.015	-733.17
725.206	-667.64
725.396	1366
725.586	-1486.83
725.776	944.11
725.966	3741.64
726.157	1359.85
726.347	1994.72
726.537	-192.51
726.727	2109.41
726.917	-1230.83
727.107	-925.68
727.297	-2742.23
727.487	2150.37
727.677	-1001.46
727.867	315.39
728.057	-317.44
728.247	921.59
728.437	835.57
728.627	-983.02
728.817	-665.59
729.007	376.83
729.197	673.78
729.387	-641.01
729.576	-397.31
729.766	1738.73
729.956	-460.79
730.146	-864.24
730.336	-1900.51
730.525	-366.59
730.715	-1128.43
730.905	12.29
731.095	-628.73
731.284	688.12
731.474	1802.21
731.664	-845.81
731.853	-2605.02
732.043	-1226.73
732.233	-1841.12
732.422	1392.62
732.612	-1501.16
732.802	555
732.991	26.62
733.181	-3084.24
733.37	-1656.81
733.56	-739.32
733.749	890.87
733.939	-2133.98
734.128	1054.7
734.318	1927.14
734.507	-813.04
734.697	-2463.71
734.886	1576.94
735.076	-1726.44
735.265	1970.15
735.454	421.88
735.644	-1734.63
735.833	-1259.5
736.022	-256
736.212	-1142.77
736.401	-616.44
736.59	1167.34
736.779	-665.59
736.969	-2109.41
737.158	344.06
737.347	-1447.91
737.536	-231.42
737.726	-1388.52
737.915	1218.54
738.104	772.08
738.293	-843.76
738.482	36.86
738.671	-1269.74
738.86	-2377.69
739.049	923.63
739.238	-1273.84
739.427	-595.96
739.616	-1888.23
739.806	-1855.46
739.995	-3170.26
740.183	-1978.34
740.372	-32.77
740.561	-600.05
740.75	-3516.36
740.939	208.89
741.128	249.85
741.317	1103.86
741.506	-952.31
741.695	196.61
741.884	862.19
742.072	1687.53
742.261	-90.11
742.45	-468.98
742.639	569.34
742.828	452.6
743.016	-856.05
743.205	-1843.17
743.394	-1595.37
743.582	1251.31
743.771	194.56
743.96	741.36
744.148	83.97
744.337	-24.58
744.526	407.55
744.714	-786.42
744.903	4085.7
745.091	-18.43
745.28	1959.91
745.468	1036.27
745.657	692.21
745.845	444.41
746.034	-620.53
746.222	88.06
746.411	393.21
746.599	1181.68
746.788	909.3
746.976	-886.77
747.165	14.34
747.353	495.61
747.541	4788.15
747.73	-1767.4
747.918	2019.3
748.106	1593.32
748.295	2344.92
748.483	1282.03
748.671	729.08
748.859	950.26
749.048	2578.39
749.236	651.25
749.424	235.52
749.612	2957.27
749.8	577.53
749.989	903.15
750.177	1601.51
750.365	2109.41
750.553	2039.78
750.741	-954.35
750.929	5183.41
751.117	790.52
751.305	1818.6
751.493	712.69
751.681	-172.03
751.869	987.12
752.057	2519
752.245	688.12
752.433	2961.36
752.621	1720.29
752.809	2940.88
752.997	2818.01
753.185	2289.63
753.373	1480.68
753.56	1314.8
753.748	2717.65
753.936	1445.87
754.124	2211.81
754.312	942.07
754.499	4036.55
754.687	2701.27
754.875	3426.25
755.063	1069.04
755.25	3237.84
755.438	4136.9
755.626	2959.31
755.813	952.31
756.001	3262.41
756.189	952.31
756.376	1449.96
756.564	2144.22
756.751	3160.02
756.939	1318.89
757.127	4605.88
757.314	1941.47
757.502	655.35
757.689	4165.57
757.877	3162.06
758.064	3559.37
758.251	1142.77
758.439	3303.37
758.626	4489.15
758.814	1411.05
759.001	4104.13
759.188	4181.95
759.376	20.48
759.563	3094.48
759.75	3526.6
759.938	1452.01
760.125	1568.74
760.312	2226.14
760.5	1902.56
760.687	3266.51
760.874	1279.98
761.061	3168.21
761.248	-305.15
761.436	5937.06
761.623	1716.2
761.81	2680.79
761.997	3379.15
762.184	1742.82
762.371	1241.07
762.558	2031.59
762.745	3864.52
762.932	2244.57
763.119	2836.44
763.306	2312.16
763.493	2662.36
763.68	2775
763.867	3956.68
764.054	872.43
764.241	1611.75
764.428	4175.81
764.615	2027.49
764.802	2105.31
764.989	1124.33
765.176	2318.3
765.362	3346.38
765.549	1495.02
765.736	10336.1
765.923	3940.29
766.11	3841.99
766.296	2170.85
766.483	-192.51
766.67	2580.44
766.857	3422.16
767.043	1124.33
767.23	2750.42
767.417	4231.1
767.603	3213.26
767.79	1820.64
767.976	4859.83
768.163	4392.89
768.35	3354.57
768.536	1863.65
768.723	1861.6
768.909	4046.79
769.096	4702.14
769.282	2109.41
769.469	1654.76
769.655	5031.86
769.842	3166.16
770.028	774.13
770.214	2263.01
770.401	2549.72
770.587	1521.64
770.774	-614.39
770.96	-735.22
771.146	2756.57
771.333	3035.09
771.519	1705.96
771.705	2547.67
771.891	1114.1
772.078	6985.62
772.264	3506.12
772.45	1689.57
772.636	2316.25
772.822	1601.51
773.009	5758.89
773.195	2928.6
773.381	2854.87
773.567	3485.64
773.753	1298.41
773.939	380.92
774.125	155.65
774.311	2242.53
774.497	454.65
774.683	1327.08
774.869	3784.65
775.055	5316.53
775.241	1036.27
775.427	2643.93
775.613	1181.68
775.799	4161.47
775.985	968.69
776.171	2164.7
776.357	2277.34
776.543	2101.22
776.729	1394.67
776.914	2129.89
777.1	3373
777.286	5969.83
777.472	1843.17
777.657	1708.01
777.843	5072.82
778.029	5187.5
778.215	2881.49
778.4	2332.64
778.586	5107.63
778.772	3856.33
778.957	3219.41
779.143	860.15
779.329	2093.02
779.514	1122.29
779.7	2217.95
779.885	-24.58
780.071	2717.65
780.256	2797.53
780.442	2461.66
780.627	163.84
780.813	3377.1
780.998	4132.8
781.184	3080.14
781.369	839.67
781.555	3409.87
781.74	1925.09
781.925	4032.45
782.111	1257.45
782.296	2381.79
782.481	2666.46
782.667	2179.04
782.852	3592.14
783.037	1982.43
783.223	1562.6
783.408	2095.07
783.593	3477.45
783.778	1191.92
783.963	2904.02
784.149	3303.37
784.334	1808.36
784.519	2222.05
784.704	874.48
784.889	2615.26
785.074	1196.01
785.259	2043.87
785.444	4650.94
785.629	800.76
785.814	278.52
785.999	1816.55
786.184	5216.18
786.369	1431.53
786.554	59.39
786.739	3676.1
786.924	3090.38
787.109	2514.91
787.294	3887.04
787.479	3897.28
787.664	2248.67
787.849	3831.75
788.034	3366.86
788.218	2502.62
788.403	2615.26
788.588	3715.02
788.773	2815.96
788.957	1521.64
789.142	4087.75
789.327	2850.77
789.512	1740.77
789.696	5605.29
789.881	6274.98
790.066	2400.22
790.25	5291.95
790.435	2584.54
790.619	4329.41
790.804	3397.58
790.989	2705.37
791.173	5935.01
791.358	3563.47
791.542	1738.73
791.727	2566.1
791.911	2060.26
792.096	1406.95
792.28	1970.15
792.465	2082.78
792.649	1732.58
792.833	3358.67
793.018	1978.34
793.202	3538.89
793.386	5398.45
793.571	4104.13
793.755	2934.74
793.939	1781.73
794.124	2375.64
794.308	3074
794.492	2248.67
794.676	1773.54
794.861	2525.15
795.045	4046.79
795.229	667.64
795.413	3686.34
795.597	2275.29
795.781	2904.02
795.966	5576.62
796.15	2861.01
796.334	6993.81
796.518	5423.02
796.702	1943.52
796.886	3514.31
797.07	5226.42
797.254	4231.1
797.438	2469.85
797.622	2326.49
797.806	3180.5
797.99	4165.57
798.174	3160.02
798.358	5132.21
798.541	5232.56
798.725	5709.74
798.909	3266.51
799.093	3989.44
799.277	3540.94
799.461	4892.6
799.644	241.66
799.828	3358.67
800.012	5474.22
800.196	3223.5
800.379	3182.54
800.563	1765.35
800.747	5193.65
800.93	2953.17
801.114	2791.38
801.298	1998.82
801.481	5500.84
801.665	5482.41
801.848	1617.9
802.032	2963.41
802.216	6961.05
802.399	3119.06
802.583	1482.73
802.766	1091.57
802.95	3946.44
803.133	5263.28
803.317	1810.4
803.5	1619.94
803.683	3272.65
803.867	1732.58
804.05	4399.04
804.233	5609.39
804.417	6289.31
804.6	3049.43
804.783	3784.65
804.967	5517.23
805.15	4210.62
805.333	3618.76
805.517	4440
805.7	2045.92
805.883	3368.91
806.066	4732.86
806.249	5423.02
806.432	1761.25
806.616	3776.45
806.799	1898.47
806.982	2813.91
807.165	3891.14
807.348	3848.13
807.531	2334.68
807.714	2908.12
807.897	4050.88
808.08	4147.14
808.263	5226.42
808.446	4886.45
808.629	3731.4
808.812	2914.26
808.995	3448.78
809.178	5605.29
809.361	5009.33
809.544	4921.27
809.726	6350.75
809.909	5148.59
810.092	4523.96
810.275	4868.02
810.458	7188.37
810.64	5081.01
810.823	4915.13
811.006	3989.44
811.189	6234.02
811.371	2789.33
811.554	3729.35
811.737	5265.33
811.919	5435.31
812.102	2811.86
812.285	1736.68
812.467	4548.54
812.65	3387.34
812.832	2705.37
813.015	5488.56
813.197	5144.5
813.38	5177.27
813.562	6070.18
813.745	1990.63
813.927	1785.83
814.11	5021.62
814.292	3014.61
814.475	2201.57
814.657	3026.9
814.839	4413.37
815.022	2222.05
815.204	6715.29
815.386	6162.34
815.569	5287.86
815.751	1376.24
815.933	5105.59
816.116	5035.96
816.298	5521.32
816.48	3299.28
816.662	2648.02
816.844	3835.85
817.027	3672.01
817.209	2811.86
817.391	2158.56
817.573	3231.69
817.755	3325.9
817.937	3940.29
818.119	2813.91
818.301	2506.71
818.483	3334.09
818.665	2664.41
818.847	4353.98
819.029	3850.18
819.211	1900.52
819.393	3674.06
819.575	6129.57
819.757	5621.67
819.939	4280.25
820.121	3497.93
820.303	3887.04
820.485	6829.98
820.666	6090.66
820.848	6219.68
821.03	3526.6
821.212	5246.9
821.394	1429.48
821.575	4196.29
821.757	5775.27
821.939	4147.14
822.121	4415.42
822.302	6752.15
822.484	5201.84
822.666	1265.64
822.847	2867.16
823.029	749.56
823.21	4919.22
823.392	1574.89
823.573	3327.95
823.755	2054.11
823.937	2172.89
824.118	2441.18
824.3	8318.85
824.481	2568.15
824.662	2688.98
824.844	3461.07
825.025	4601.79
825.207	1658.85
825.388	3463.12
825.569	2058.21
825.751	2768.85
825.932	6180.77
826.113	1712.1
826.295	4712.38
826.476	4083.65
826.657	3469.26
826.839	2815.96
827.02	4122.56
827.201	6868.89
827.382	3321.81
827.563	4614.07
827.744	2811.86
827.926	3946.44
828.107	5418.93
828.288	1877.99
828.469	3854.28
828.65	4700.09
828.831	1310.7
829.012	3289.04
829.193	5492.65
829.374	2578.39
829.555	5652.39
829.736	8896.38
829.917	6582.17
830.098	4995
830.279	1155.05
830.46	2566.1
830.641	3542.99
830.822	3373
831.002	5273.52
831.183	2418.65
831.364	4630.46
831.545	4470.72
831.726	3653.58
831.906	3172.3
832.087	4403.13
832.268	4237.25
832.449	5644.2
832.629	1304.56
832.81	2795.48
832.991	2232.29
833.171	3989.44
833.352	3743.69
833.532	5195.7
833.713	2627.54
833.894	3178.45
834.074	1116.14
834.255	2404.32
834.435	2258.91
834.616	2521.05
834.796	3004.37
834.977	4452.28
835.157	6762.39
835.338	2328.54
835.518	1241.07
835.698	3336.14
835.879	1994.72
836.059	3289.04
836.239	3188.69
836.42	3063.76
836.6	3766.21
836.78	864.24
836.961	2146.27
837.141	4487.1
837.321	1718.25
837.501	6604.7
837.682	2289.63
837.862	2920.4
838.042	8654.72
838.222	2330.59
838.402	2623.45
838.582	2760.66
838.763	3721.16
838.943	2600.92
839.123	5224.37
839.303	3133.39
839.483	4511.68
839.663	354.3
839.843	15795.98
840.023	4861.88
840.203	4472.76
840.383	2504.67
840.563	2224.09
840.742	2973.65
840.922	1814.5
841.102	4024.26
841.282	2838.48
841.462	2908.12
841.642	2349.02
841.822	1269.74
842.001	245.76
842.181	3602.38
842.361	3614.66
842.541	4710.33
842.72	3811.27
842.9	2443.23
843.08	3147.73
843.259	2572.25
843.439	2686.94
843.619	2148.32
843.798	2797.53
843.978	3971.01
844.157	2088.93
844.337	3997.64
844.517	2064.35
844.696	5380.01
844.876	3942.34
845.055	1535.98
845.235	3889.09
845.414	3039.19
845.593	1439.72
845.773	2115.55
845.952	196.61
846.132	1140.72
846.311	1005.55
846.49	3553.23
846.67	3690.44
846.849	2007.01
847.028	1042.42
847.208	3815.37
847.387	1673.19
847.566	5572.52
847.745	1427.43
847.924	3674.06
848.104	3571.66
848.283	3409.87
848.462	4462.52
848.641	4726.71
848.82	2713.56
848.999	5406.64
849.178	2293.73
849.358	4345.79
849.537	2940.88
849.716	1976.29
849.895	1259.5
850.074	4769.72
850.253	4857.78
850.432	3225.55
850.61	2670.55
850.789	2013.15
850.968	4972.47
851.147	4761.53
851.326	1765.35
851.505	2768.85
851.684	3176.4
851.863	4374.46
852.041	3442.64
852.22	2408.41
852.399	1861.6
852.578	3848.13
852.756	749.56
852.935	2314.2
853.114	4462.52
853.293	1222.64
853.471	5834.66
853.65	3323.85
853.828	2267.1
854.007	1505.26
854.186	3096.53
854.364	4558.78
854.543	3301.33
854.721	2238.43
854.9	3772.36
855.078	5107.63
855.257	2195.42
855.435	-239.61
855.614	2994.13
855.792	2201.57
855.971	2228.19
856.149	903.15
856.327	3540.94
856.506	2979.79
856.684	2076.64
856.862	1669.09
857.041	-555
857.219	4456.38
857.397	1765.35
857.576	2084.83
857.754	1890.28
857.932	3895.24
858.11	2588.63
858.288	2234.33
858.467	552.95
858.645	772.08
858.823	2058.21
859.001	3141.58
859.179	1026.03
859.357	1714.15
859.535	3620.81
859.713	4157.38
859.891	3434.44
860.069	6299.55
860.247	1814.5
860.425	344.06
860.603	3168.21
860.781	4358.08
860.959	2963.41
861.137	6.14
861.315	1279.98
861.493	2916.31
861.67	4399.04
861.848	3966.92
862.026	1781.73
862.204	1804.26
862.382	1947.62
862.559	2385.88
862.737	3547.08
862.915	4122.56
863.093	2133.98
863.27	4267.97
863.448	4054.98
863.626	2877.4
863.803	2277.34
863.981	1314.8
864.158	49.15
864.336	1572.84
864.514	1146.86
864.691	727.03
864.869	1521.64
865.046	788.47
865.224	2627.54
865.401	4100.03
865.578	1529.83
865.756	4884.41
865.933	40.96
866.111	3899.33
866.288	1187.82
866.465	1767.4
866.643	962.55
866.82	1421.29
866.997	1458.15
867.175	2367.45
867.352	1552.36
867.529	-540.66
867.706	1126.38
867.884	2506.71
868.061	2158.56
868.238	1609.7
868.415	868.34
868.592	1304.56
868.77	1058.8
868.947	3669.96
869.124	1554.41
869.301	157.69
869.478	2367.45
869.655	-671.73
869.832	2127.84
870.009	4941.75
870.186	4833.21
870.363	2394.08
870.54	2283.49
870.717	1673.19
870.894	2199.52
871.071	3147.73
871.247	475.13
871.424	1304.56
871.601	1873.89
871.778	1214.45
871.955	1714.15
872.132	2553.82
872.308	2080.74
872.485	1916.9
872.662	1525.74
872.839	3903.43
873.015	1060.85
873.192	2533.34
873.369	2447.32
873.545	1435.63
873.722	2113.5
873.898	2066.4
874.075	1361.9
874.252	2201.57
874.428	1646.57
874.605	2084.83
874.781	-849.91
874.958	833.52
875.134	2820.05
875.311	2510.81
875.487	2598.87
875.663	4245.44
875.84	2037.73
876.016	2842.58
876.193	2557.91
876.369	894.96
876.545	946.16
876.722	856.05
876.898	1871.84
877.074	2404.32
877.25	2998.23
877.427	7675.79
877.603	1366
877.779	1421.29
877.955	1617.9
878.132	4100.03
878.308	3502.03
878.484	5128.11
878.66	458.75
878.836	2195.42
879.012	1910.75
879.188	2478.04
879.364	1818.6
879.54	1241.07
879.716	346.11
879.892	2060.26
880.068	3561.42
880.244	5427.12
880.42	831.48
880.596	1443.82
880.772	1294.32
880.948	1069.04
881.124	2688.98
881.3	6678.43
881.475	1767.4
881.651	1744.87
881.827	1374.19
882.003	1740.77
882.178	-362.49
882.354	1423.34
882.53	1009.65
882.706	1871.84
882.881	2340.83
883.057	380.92
883.233	1601.51
883.408	3643.34
883.584	935.92
883.759	212.99
883.935	-26.62
884.111	0
884.286	1239.02
884.462	-360.44
884.637	1269.74
884.813	75.77
884.988	1286.12
885.164	5040.05
885.339	577.53
885.514	3252.17
885.69	620.53
885.865	-180.22
886.04	2688.98
886.216	892.91
886.391	2602.97
886.566	1691.62
886.742	-264.19
886.917	1814.5
887.092	4202.43
887.267	-135.17
887.443	-606.2
887.618	653.3
887.793	663.54
887.968	2086.88
888.143	-96.25
888.318	1597.42
888.494	2658.26
888.669	1421.29
888.844	1636.33
889.019	1239.02
889.194	1200.11
889.369	591.86
889.544	1085.42
889.719	2807.77
889.894	4140.99
890.069	2138.08
890.243	2736.09
890.418	1093.62
890.593	446.46
890.768	1531.88
890.943	3528.65
891.118	1081.33
891.293	1701.86
891.467	374.78
891.642	4786.1
891.817	1103.86
891.992	1947.62
892.166	610.29
892.341	2912.21
892.516	1781.73
892.69	1855.46
892.865	-487.42
893.04	1333.23
893.214	2901.97
893.389	2369.5
893.563	4687.8
893.738	5058.48
893.912	907.25
894.087	2017.25
894.261	3219.41
894.436	524.28
894.61	4368.32
894.785	1578.98
894.959	1738.73
895.134	3473.36
895.308	479.22
895.482	2807.77
895.657	372.73
895.831	811
896.005	7514
896.18	948.21
896.354	1734.63
896.528	-153.6
896.702	1857.51
896.877	3561.42
897.051	-79.87
897.225	1943.52
897.399	2176.99
897.573	821.24
897.747	1837.03
897.922	1435.63
898.096	3456.97
898.27	16.38
898.444	772.08
898.618	1990.63
898.792	1732.58
898.966	1853.41
899.14	1974.24
899.314	2228.19
899.488	3549.13
899.662	1732.58
899.835	1556.46
900.009	1753.06
900.183	-202.75
900.357	4974.52
900.531	585.72
900.705	129.02
900.878	-559.1
901.052	290.81
901.226	2142.18
901.4	1693.67
901.573	114.69
901.747	-294.91
901.921	704.5
902.095	1052.66
902.268	2650.07
902.442	-473.08
902.615	-1206.25
902.789	2070.5
902.963	6473.63
903.136	331.77
903.31	2854.87
903.483	-833.52
903.657	2152.42
903.83	831.48
904.004	-2185.18
904.177	542.71
904.35	-122.88
904.524	-1824.74
904.697	602.1
904.871	557.05
905.044	1574.89
905.217	5152.69
905.391	3551.18
905.564	1118.19
905.737	757.75
905.91	-135.17
906.084	-2103.26
906.257	573.43
906.43	-2123.74
906.603	174.08
906.776	-3164.11
906.949	-1122.29
907.123	-1222.64
907.296	-419.83
907.469	2248.67
907.642	-585.72
907.815	1507.31
907.988	-86.01
908.161	-831.48
908.334	-1085.42
908.507	954.35
908.68	559.1
908.853	51.2
909.026	-604.15
909.199	-403.45
909.371	2514.91
909.544	1419.24
909.717	47.1
909.89	-1236.97
910.063	-1234.93
910.236	-120.83
910.408	1103.86
910.581	-2148.32
910.754	-2322.4
910.927	-2818
911.099	309.24
911.272	360.44
911.445	157.69
911.617	-595.96
911.79	1822.69
911.962	-325.63
912.135	-1054.7
912.308	77.82
912.48	-1769.44
912.653	-1472.49
912.825	-929.78
912.998	-634.87
913.17	1269.74
913.343	1658.85
913.515	-636.92
913.687	-1693.67
913.86	104.45
914.032	1675.24
914.205	-673.78
914.377	-217.08
914.549	-2981.84
914.721	401.4
914.894	-1636.33
915.066	-569.34
915.238	-1667.05
915.41	2144.22
915.583	139.26
915.755	-1777.64
915.927	-6.14
916.099	1071.09
916.271	-790.52
916.443	-1923.04
916.616	-2080.74
916.788	22134.45
916.96	2082.78
917.132	-3598.28
917.304	-307.2
917.476	1853.41
917.648	305.15
917.82	-2983.89
917.992	950.26
918.164	978.93
918.335	333.82
918.507	1177.58
918.679	-2529.24
918.851	1734.63
919.023	-534.52
919.195	-43.01
919.366	-2146.27
919.538	-2764.76
919.71	-1609.7
919.882	-1409
920.053	-1751.01
920.225	-1116.14
920.397	1597.42
920.568	-1802.21
920.74	-1236.97
920.912	-1144.81
921.083	-1619.94
921.255	-2115.55
921.426	-2041.82
921.598	4.1
921.77	-1087.47
921.941	-1966.05
922.113	-1791.97
922.284	1361.9
922.455	-1087.47
922.627	-2236.38
922.798	-1943.52
922.97	-1523.69
923.141	-1343.47
923.312	-3409.87
923.484	704.5
923.655	-2570.2
923.826	864.24
923.998	-1200.11
924.169	788.47
924.34	-1583.08
924.511	81.92
924.683	-184.32
924.854	-1316.84
925.025	-276.48
925.196	1196.01
925.367	722.93
925.538	69.63
925.709	-206.84
925.881	538.62
926.052	-1470.44
926.223	-784.37
926.394	995.31
926.565	-825.33
926.736	-3551.18
926.907	-1644.52
927.078	327.68
927.248	1880.04
927.419	729.08
927.59	-2883.54
927.761	921.59
927.932	759.8
928.103	-552.95
928.274	-1320.94
928.444	-493.56
928.615	-1138.67
928.786	-1234.93
928.957	-2047.97
929.127	-1300.46
929.298	-43.01
929.469	-1437.67
929.639	-206.84
929.81	-321.53
929.981	-208.89
930.151	145.41
930.322	2992.08
930.492	473.08
930.663	3194.83
930.833	-1597.42
931.004	-452.6
931.174	321.53
931.345	53.25
931.515	-1802.21
931.686	-303.1
931.856	1882.08
932.027	-1959.91
932.197	860.15
932.367	-1851.36
932.538	1273.84
932.708	-1095.66
932.878	-104.45
933.048	-661.49
933.219	-1265.64
933.389	1703.91
933.559	-1675.24
933.729	-1839.08
933.9	262.14
934.07	-2093.02
934.24	-2498.52
934.41	88.06
934.58	-200.7
934.75	776.18
934.92	-3041.23
935.09	301.05
935.26	-1136.62
935.43	2287.58
935.6	-1103.86
935.77	755.7
935.94	194.56
936.11	-1187.82
936.28	-1626.09
936.45	937.97
936.62	55.3
936.79	368.63
936.96	-606.2
937.129	-866.29
937.299	-98.3
937.469	-4.1
937.639	-79.87
937.808	-882.67
937.978	-2256.86
938.148	1277.93
938.317	-2.05
938.487	327.68
938.657	-1505.26
938.826	-1581.03
938.996	-727.03
939.166	-3663.82
939.335	-2039.78
939.505	30.72
939.674	-1316.84
939.844	-1982.43
940.013	94.21
940.183	-2115.55
940.352	-1937.38
940.522	-548.86
940.691	-1099.76
940.86	628.73
941.03	-915.44
941.199	34.82
941.368	364.54
941.538	1220.59
941.707	-1906.66
941.876	-557.05
942.046	790.52
942.215	-155.65
942.384	-2095.07
942.553	-468.98
942.722	-780.28
942.892	1515.5
943.061	-2815.96
943.23	360.44
943.399	3540.94
943.568	-745.46
943.737	1884.13
943.906	-30.72
944.075	-1640.42
944.244	1302.51
944.413	-931.83
944.582	-2523.1
944.751	28.67
944.92	-411.64
945.089	352.25
945.258	-741.36
945.427	-583.67
945.596	-606.2
945.764	-485.37
945.933	-1218.54
946.102	1120.24
946.271	-712.69
946.44	-886.77
946.608	-1363.95
946.777	-997.36
946.946	-710.65
947.114	1972.19
947.283	-950.26
947.452	-1720.29
947.62	-1136.62
947.789	1099.76
947.958	-1288.17
948.126	118.78
948.295	94.21
948.463	-1071.09
948.632	-1105.9
948.8	-870.39
948.969	-1773.54
949.137	-833.52
949.305	-1742.82
949.474	634.87
949.642	649.21
949.811	577.53
949.979	-509.94
950.147	-2095.07
950.316	-1961.95
950.484	-2252.77
950.652	-1447.91
950.82	1331.18
950.989	-2932.69
951.157	-1564.65
951.325	-2129.89
951.493	1454.06
951.661	700.41
951.83	669.69
951.998	-2650.07
952.166	-659.45
952.334	-1794.02
952.502	2856.92
952.67	952.31
952.838	575.48
953.006	2414.56
953.174	139.26
953.342	243.71
953.51	-440.31
953.678	-729.08
953.846	-2742.23
954.014	-247.8
954.181	2267.1
954.349	-1554.41
954.517	-2033.63
954.685	-1892.32
954.853	-1226.73
955.02	-1742.82
955.188	-2318.3
955.356	-1456.11
955.524	1220.59
955.691	-657.4
955.859	-1775.59
956.027	-524.28
956.194	2742.23
956.362	-1220.59
956.529	663.54
956.697	-1329.13
956.865	507.9
957.032	1548.26
957.2	-1986.53
957.367	-2113.5
957.535	217.08
957.702	704.5
957.87	-2191.33
958.037	212.99
958.204	-1075.18
958.372	1005.55
958.539	241.66
958.706	-415.74
958.874	3203.02
959.041	385.02
959.208	-1976.29
959.376	-1394.67
959.543	942.07
959.71	-172.03
959.877	1148.91
960.044	-419.83
960.212	2615.26
960.379	3092.43
960.546	212.99
960.713	-2707.41
960.88	-497.66
961.047	-120.83
961.214	14669.6
961.381	2586.58
961.548	-909.3
961.715	-454.65
961.882	-2453.47
962.049	-927.73
962.216	-1105.9
962.383	-1392.62
962.55	-958.45
962.717	1556.46
962.883	843.76
963.05	2562.01
963.217	511.99
963.384	-1275.88
963.551	-585.72
963.717	-1409
963.884	-118.78
964.051	403.45
964.218	1406.95
964.384	5732.26
964.551	-1900.51
964.717	-2691.03
964.884	-755.7
965.051	-1466.35
965.217	-2234.33
965.384	-2607.06
965.55	1073.14
965.717	712.69
965.883	10.24
966.05	-1478.63
966.216	2123.74
966.383	851.96
966.549	-129.02
966.716	-962.55
966.882	-1779.68
967.048	-1318.89
967.215	-2314.2
967.381	-1216.49
967.547	1699.81
967.713	1986.53
967.88	442.36
968.046	-2461.66
968.212	-843.76
968.378	1048.56
968.545	-2422.75
968.711	1114.1
968.877	-774.13
969.043	-106.49
969.209	-2027.49
969.375	1058.8
969.541	1957.86
969.707	2752.47
969.873	1019.89
970.039	-608.25
970.205	1564.65
970.371	4736.95
970.537	1456.11
970.703	133.12
970.869	-751.6
971.035	1787.88
971.201	-18.43
971.367	-1679.33
971.532	-444.41
971.698	-643.06
971.864	1429.48
972.03	-1900.51
972.195	-1265.64
972.361	2078.69
972.527	-1345.52
972.693	3246.03
972.858	1634.28
973.024	-1912.8
973.19	-567.29
973.355	325.63
973.521	542.71
973.686	1392.62
973.852	-2699.22
974.017	4415.42
974.183	-2258.91
974.348	542.71
974.514	-2359.26
974.679	-325.63
974.845	-1368.04
975.01	-382.97
975.175	-3065.81
975.341	17602.29
975.506	-425.98
975.672	466.94
975.837	4024.26
976.002	-217.08
976.167	-851.95
976.333	4835.25
976.498	-999.41
976.663	-1763.3
976.828	960.5
976.993	-1093.62
977.159	96.25
977.324	454.65
977.489	2912.21
977.654	-83.97
977.819	-1110
977.984	-444.41
978.149	2623.45
978.314	1294.32
978.479	-1130.48
978.644	-1949.67
978.809	-677.88
978.974	-1673.19
979.139	2007.01
979.304	8.19
979.469	-974.83
979.633	-794.61
979.798	-649.21
979.963	-1642.47
980.128	2918.36
980.293	-1894.37
980.457	-1730.53
980.622	-2547.67
980.787	-1845.22
980.951	-260.09
981.116	-389.11
981.281	-1724.39
981.445	-243.71
981.61	749.56
981.775	-1789.92
981.939	-2576.34
982.104	2021.35
982.268	1122.29
982.433	1517.54
982.597	-1632.23
982.762	2731.99
982.926	706.55
983.091	-831.48
983.255	-2553.82
983.419	-1814.5
983.584	1478.63
983.748	-143.36
983.912	-157.69
984.077	2146.27
984.241	2265.05
984.405	-1920.99
984.57	1892.32
984.734	-571.38
984.898	-253.95
985.062	-1322.99
985.226	-1296.36
985.39	2715.61
985.555	-2.05
985.719	2101.22
985.883	229.37
986.047	-1566.7
986.211	741.36
986.375	-120.83
986.539	-1349.61
986.703	-1464.3
986.867	-219.13
987.031	620.53
987.195	-1050.61
987.359	-1621.99
987.523	321.53
987.686	-2172.89
987.85	-1710.05
988.014	499.7
988.178	-1183.73
988.342	749.56
988.506	573.43
988.669	-428.03
988.833	323.58
988.997	520.18
989.16	-413.69
989.324	-225.28
989.488	2858.96
989.651	159.74
989.815	3172.3
989.979	-1167.34
990.142	32.77
990.306	-579.58
990.469	1556.46
990.633	1097.71
990.796	2162.65
990.96	-710.65
991.123	786.42
991.286	1779.68
991.45	894.96
991.613	-1646.57
991.777	-2209.76
991.94	-2164.7
992.103	548.86
992.267	2760.66
992.43	-806.9
992.593	479.22
992.756	221.18
992.92	688.12
993.083	595.96
993.246	-364.54
993.409	-2787.29
993.572	-2228.19
993.735	-608.25
993.899	323.58
994.062	-360.44
994.225	-966.64
994.388	241.66
994.551	2469.85
994.714	-360.44
994.877	-569.34
995.04	-1576.94
995.203	-1304.56
995.366	1157.1
995.528	-1378.28
995.691	933.87
995.854	-1613.8
996.017	-770.04
996.18	-2682.84
996.343	-505.85
996.505	1847.27
996.668	622.58
996.831	-655.35
996.994	-548.86
997.156	-303.1
997.319	-1286.12
997.482	1538.02
997.644	-1667.05
997.807	1157.1
997.97	-2056.16
998.132	-1419.24
998.295	1386.47
998.457	350.2
998.62	-1157.1
998.782	-1673.19
998.945	98.3
999.107	28.67
999.27	22.53
999.432	-667.64
999.594	526.33
999.757	1986.53
999.919	153.6
1000.081	-2174.94
1000.244	-225.28
1000.406	-116.73
1000.568	-264.19
1000.731	1740.77
1000.893	1529.83
1001.055	1322.99
1001.217	-540.66
1001.379	-2394.08
1001.542	-1298.41
1001.704	3399.63
1001.866	-821.24
1002.028	1011.7
1002.19	372.73
1002.352	-1208.3
1002.514	-1476.59
1002.676	5400.49
1002.838	1841.12
1003	-610.29
1003.162	-1286.12
1003.324	2193.37
1003.486	1056.75
1003.648	-1284.08
1003.809	-698.36
1003.971	880.63
1004.133	-110.59
1004.295	-288.76
1004.457	-337.91
1004.618	702.45
1004.78	141.31
1004.942	3749.83
1005.104	-47.1
1005.265	-1445.87
1005.427	839.67
1005.589	-741.36
1005.75	258.04
1005.912	1865.7
1006.073	2176.99
1006.235	192.51
1006.396	-243.71
1006.558	-141.31
1006.72	-210.94
1006.881	425.98
1007.042	-1220.59
1007.204	-1918.95
1007.365	-1378.28
1007.527	983.03
1007.688	3067.86
1007.849	-53.25
1008.011	-124.93
1008.172	403.45
1008.333	700.41
1008.495	-434.17
1008.656	-1966.05
1008.817	1089.52
1008.978	2398.17
1009.139	-714.74
1009.301	692.21
1009.462	-2623.45
1009.623	974.83
1009.784	-1538.02
1009.945	225.28
1010.106	925.68
1010.267	131.07
1010.428	-1380.33
1010.589	-2271.2
1010.75	38.91
1010.911	-1122.29
1011.072	-2385.88
1011.233	948.21
1011.394	-585.72
1011.555	38.91
1011.716	591.86
1011.877	-1322.99
1012.037	329.72
1012.198	-1382.38
1012.359	458.75
1012.52	-1462.25
1012.68	-403.45
1012.841	143.36
1013.002	229.37
1013.163	-886.77
1013.323	348.15
1013.484	-1810.4
1013.644	-1384.43
1013.805	661.49
1013.966	-542.71
1014.126	2574.3
1014.287	-847.86
1014.447	-270.33
1014.608	1314.8
1014.768	-1177.58
1014.929	1044.46
1015.089	-1355.76
1015.249	90.11
1015.41	-10.24
1015.57	1093.62
1015.731	-2207.71
1015.891	-767.99
1016.051	661.49
1016.211	-511.99
1016.372	1495.02
1016.532	-802.8
1016.692	-231.42
1016.852	569.34
1017.013	-735.22
1017.173	-268.28
1017.333	-1050.61
1017.493	-823.28
1017.653	-1499.11
1017.813	-2076.64
1017.973	-360.44
1018.133	-1578.98
1018.293	-1920.99
1018.453	-212.99
1018.613	-1884.13
1018.773	2017.25
1018.933	-100.35
1019.093	755.7
1019.253	-116.73
1019.413	950.26
1019.573	-2150.37
1019.733	-421.88
1019.892	2027.49
1020.052	-407.55
1020.212	491.51
1020.372	145.41
1020.531	1619.94
1020.691	-186.37
1020.851	430.07
1021.01	296.96
1021.17	133.12
1021.33	-538.62
1021.489	-1679.33
1021.649	-81.92
1021.808	2.05
1021.968	299
1022.127	-2746.33
1022.287	1976.29
1022.446	-651.25
1022.606	796.66
1022.765	-1460.2
1022.925	2682.84
1023.084	-686.07
1023.244	1679.33
1023.403	-831.48
1023.562	-1028.08
1023.722	-559.1
1023.881	-716.79
1024.04	-280.57
1024.199	638.97
1024.359	-55.3
1024.518	-2203.61
1024.677	-884.72
1024.836	-817.14
1024.995	743.41
1025.154	-1075.18
1025.313	-196.6
1025.473	-1163.25
1025.632	-1388.52
1025.791	987.12
1025.95	-1327.08
1026.109	-798.71
1026.268	223.23
1026.427	1322.99
1026.586	1775.59
1026.744	-110.59
1026.903	6385.57
1027.062	-329.72
1027.221	1073.14
1027.38	368.63
1027.539	1163.25
1027.698	4954.04
1027.856	-1458.15
1028.015	638.97
1028.174	468.98
1028.333	270.33
1028.491	4220.86
1028.65	1468.39
1028.808	3925.96
1028.967	774.13
1029.126	487.42
1029.284	-2002.91
1029.443	958.45
1029.601	-737.27
1029.76	-1632.23
1029.918	-1249.26
1030.077	616.44
1030.235	2475.99
1030.394	-749.56
1030.552	1236.97
1030.711	2598.87
1030.869	-655.35
1031.027	-804.85
1031.186	-2584.54
1031.344	-1292.27
1031.502	-339.96
1031.661	1325.04
1031.819	2179.04
1031.977	1243.12
1032.135	-1708.01
1032.293	-886.77
1032.452	-1566.7
1032.61	3833.8
1032.768	-1853.41
1032.926	235.52
1033.084	3280.85
1033.242	-681.97
1033.4	-1632.23
1033.558	866.29
1033.716	-550.9
1033.874	-993.26
1034.032	-221.18
1034.19	-243.71
1034.348	2471.9
1034.506	-1837.03
1034.664	489.46
1034.822	-1638.37
1034.979	2557.91
1035.137	811
1035.295	-157.69
