Data from undoped LN 10 sec exposure (900 SPF and 750LPF in Output, 700SpF Input)_USBC44471_14-38-38-882.txt Node
Date: Wed Jul 29 14:38:38 MDT 2020
User: Montana Instruments
Spectrometer: USBC4447
Scans to average: 1
Trigger mode: 4
Integration Time (sec): 1.000000E1
Electric dark correction enabled: true
Boxcar width: 0
XAxis mode: Wavelengths
Number of Pixels in Spectrum: 3648
>>>>>Begin Spectral Data<<<<<
344.991	-5420.12
345.205	-5420.12
345.419	-5420.12
345.633	-5483.61
345.847	-5463.13
346.061	-320.68
346.275	793.42
346.489	-1344.66
346.703	-87.21
346.917	-1811.6
347.131	1145.67
347.345	-804
347.559	-863.39
347.773	1489.73
347.986	11.09
348.2	3111.72
348.414	-1320.09
348.628	-752.8
348.842	-1111.19
349.056	-1162.39
349.269	314.19
349.483	1385.28
349.697	1454.91
349.911	1411.9
350.125	-1088.67
350.338	346.96
350.552	731.98
350.766	-605.35
350.979	-1680.53
351.193	-445.6
351.407	5350.15
351.621	-236.71
351.834	-1551.51
352.048	2333.49
352.262	-599.2
352.475	3384.1
352.689	1057.61
352.902	1649.47
353.116	47.96
353.33	-1565.84
353.543	-1178.78
353.757	129.88
353.971	359.25
354.184	252.75
354.398	-373.92
354.611	820.04
354.825	2868.01
355.038	1190.72
355.252	-249
355.465	-382.12
355.679	-1901.71
355.892	668.49
356.106	1217.35
356.319	7846.62
356.533	-619.68
356.746	-195.75
356.96	-838.81
357.173	-1430.68
357.386	1327.94
357.6	-717.98
357.813	-984.22
358.027	-2043.02
358.24	-844.96
358.453	2624.3
358.667	-1381.53
358.88	1112.9
359.094	-1117.34
359.307	240.47
359.52	-386.21
359.733	2173.75
359.947	-2346.12
360.16	1194.82
360.373	1682.24
360.587	-1180.82
360.8	-709.79
361.013	-451.75
361.226	-697.5
361.44	2663.21
361.653	1504.06
361.866	-1027.23
362.079	-2235.53
362.292	312.14
362.506	3445.54
362.719	578.38
362.932	3048.23
363.145	-38.06
363.358	-967.84
363.571	-1424.53
363.785	-337.06
363.998	1223.49
364.211	1944.38
364.424	-1442.96
364.637	1045.32
364.85	-711.84
365.063	2009.91
365.276	181.07
365.489	-1598.61
365.702	-302.25
365.915	402.26
366.128	-302.25
366.341	1962.81
366.554	3361.57
366.767	-742.56
366.98	-58.54
367.193	1035.08
367.406	-1387.67
367.619	3846.94
367.832	1995.57
368.045	113.49
368.258	475.98
368.471	1002.31
368.684	-2167.95
368.896	-1959.05
369.109	-9.39
369.322	-1076.38
369.535	-259.24
369.748	-1682.58
369.961	-740.51
370.173	-2786.43
370.386	-2643.07
370.599	2718.51
370.812	-447.65
371.025	-836.77
371.237	-31.91
371.45	215.89
371.663	715.59
371.876	-738.46
372.088	4776.72
372.301	-806.05
372.514	-1557.65
372.726	365.39
372.939	-375.97
373.152	-418.98
373.364	883.53
373.577	3584.8
373.79	-789.66
374.002	-994.46
374.215	-2972.8
374.428	-1938.57
374.64	1676.09
374.853	-957.6
375.065	-535.71
375.278	3529.5
375.491	-56.49
375.703	1583.93
375.916	-2008.2
376.128	-732.32
376.341	-1604.75
376.553	918.34
376.766	-1537.17
376.978	-1856.65
377.191	697.16
377.403	-1821.84
377.616	3236.64
377.828	4219.67
378.04	-1301.65
378.253	-564.39
378.465	236.37
378.678	1196.87
378.89	-1346.71
379.103	-791.71
379.315	176.98
379.527	-1672.34
379.74	-572.58
379.952	-238.76
380.164	-1625.23
380.377	2145.08
380.589	-23.72
380.801	-93.35
381.014	1579.84
381.226	906.06
381.438	-7.34
381.65	-1451.16
381.863	-60.59
382.075	-1238.17
382.287	-2348.17
382.499	-1025.18
382.712	-210.09
382.924	-113.83
383.136	-924.83
383.348	-3525.75
383.56	-128.17
383.772	-1010.84
383.985	166.74
384.197	1448.77
384.409	-529.57
384.621	248.66
384.833	-23.72
385.045	113.49
385.257	-1410.2
385.469	-634.02
385.681	84.82
385.893	-103.59
386.105	-967.84
386.318	-2724.99
386.53	-431.27
386.742	-3361.91
386.954	-2344.07
387.166	2853.67
387.378	-31.91
387.589	47.96
387.801	-3325.05
388.013	-1565.84
388.225	-1264.79
388.437	-2196.62
388.649	-1807.5
388.861	2624.3
389.073	1043.27
389.285	-564.39
389.497	871.24
389.709	1325.89
389.92	-1342.61
390.132	-959.64
390.344	-926.88
390.556	-642.21
390.768	248.66
390.98	-971.93
391.191	1774.39
391.403	629.58
391.615	215.89
391.827	-1213.59
392.038	-877.73
392.25	-367.78
392.462	-2266.25
392.674	-1924.24
392.885	-1637.52
393.097	-2524.29
393.309	-892.06
393.52	1170.24
393.732	-1670.29
393.944	527.18
394.155	445.26
394.367	-1463.44
394.579	584.52
394.79	-1285.27
395.002	172.88
395.213	-2782.34
395.425	-548
395.637	-1277.08
395.848	-2405.51
396.06	258.9
396.271	281.43
396.483	-1189.02
396.694	-365.73
396.906	-521.38
397.117	1375.04
397.329	1260.35
397.54	-847.01
397.752	-1840.27
397.963	-1262.74
398.175	164.69
398.386	985.93
398.598	-965.79
398.809	-2301.06
399.02	836.42
399.232	830.28
399.443	-91.31
399.655	-1033.37
399.866	-1195.16
400.077	-595.11
400.289	1418.05
400.5	-171.18
400.711	791.37
400.923	-1526.93
401.134	-1139.87
401.345	-2012.3
401.556	3492.64
401.768	-1049.75
401.979	-523.43
402.19	838.47
402.401	-466.08
402.613	31.57
402.824	-717.98
403.035	-2763.9
403.246	-1887.37
403.457	252.75
403.669	52.05
403.88	-1346.71
404.091	-2284.68
404.302	-1518.74
404.513	-642.21
404.724	-996.51
404.935	-871.58
405.146	805.71
405.358	-1922.19
405.569	-1715.34
405.78	-2112.65
405.991	-959.64
406.202	-119.98
406.413	-416.93
406.624	-1565.84
406.835	-287.91
407.046	2908.97
407.257	-195.75
407.468	1127.24
407.679	-406.69
407.89	1964.86
408.101	1884.98
408.312	-570.53
408.522	-2012.3
408.733	269.14
408.944	168.79
409.155	-613.54
409.366	914.25
409.577	-2122.89
409.788	-519.33
409.999	70.48
410.209	-859.29
410.42	7
410.631	-1911.95
410.842	-527.52
411.053	5171.97
411.264	1102.66
411.474	-1340.57
411.685	-343.21
411.896	-1526.93
412.107	-2165.9
412.317	-1076.38
412.528	1911.61
412.739	-2223.24
412.949	-1457.3
413.16	58.2
413.371	2071.35
413.581	1055.56
413.792	-595.11
414.003	3521.31
414.213	1686.33
414.424	-2217.1
414.635	-607.39
414.845	-1305.75
415.056	965.45
415.266	-1766.54
415.477	-2534.53
415.687	793.42
415.898	475.98
416.109	-1860.75
416.319	351.06
416.53	-2876.54
416.74	52.05
416.951	-1389.72
417.161	-97.45
417.372	314.19
417.582	596.81
417.792	1715
418.003	2278.19
418.213	-787.61
418.424	371.54
418.634	-1658
418.844	1059.65
419.055	1887.03
419.265	-1383.57
419.476	555.85
419.686	-1117.34
419.896	4.95
420.107	-1129.63
420.317	-984.22
420.527	115.54
420.738	-543.91
420.948	1223.49
421.158	1422.14
421.368	-674.98
421.579	-457.89
421.789	-1182.87
421.999	-3892.34
422.209	-574.63
422.419	-545.95
422.63	-132.26
422.84	-578.72
423.05	-1221.78
423.26	-1164.44
423.47	-191.66
423.681	-2124.94
423.891	797.51
424.101	1542.97
424.311	-935.07
424.521	-314.53
424.731	-847.01
424.941	-677.02
425.151	1706.81
425.361	-1711.25
425.571	-2643.07
425.781	4125.46
425.991	840.52
426.201	1663.8
426.411	363.34
426.621	-1524.88
426.831	-2086.03
427.041	-101.55
427.251	-392.36
427.461	1401.66
427.671	1123.14
427.881	-916.64
428.091	-156.84
428.301	2538.29
428.511	-210.09
428.721	-3382.39
428.93	-423.08
429.14	-1176.73
429.35	281.43
429.56	-1213.59
429.77	-427.17
429.98	-1299.61
430.189	-1139.87
430.399	2779.95
430.609	1436.48
430.819	224.08
431.029	-1475.73
431.238	-986.27
431.448	-857.25
431.658	-2700.42
431.867	-842.91
432.077	109.4
432.287	-1164.44
432.497	-969.88
432.706	-289.96
432.916	-441.51
433.125	-3112.06
433.335	-1391.77
433.545	1334.08
433.754	4031.26
433.964	-1301.65
434.174	-928.92
434.383	2237.24
434.593	-1078.43
434.802	1092.42
435.012	-1498.26
435.221	211.79
435.431	-679.07
435.64	-1033.37
435.85	-1248.41
436.059	207.7
436.269	731.98
436.478	-994.46
436.688	-2524.29
436.897	-976.03
437.107	-2342.02
437.316	28463.52
437.525	213.84
437.735	27.48
437.944	-119.98
438.154	2526
438.363	168.79
438.572	2749.23
438.782	228.18
438.991	-992.41
439.2	-287.91
439.41	-1064.09
439.619	-1244.31
439.828	252.75
440.038	35.67
440.247	2110.26
440.456	-1741.97
440.665	656.2
440.875	834.38
441.084	301.9
441.293	-1840.27
441.502	-1328.28
441.711	-1139.87
441.92	291.66
442.13	-296.1
442.339	-1277.08
442.548	-554.15
442.757	1936.18
442.966	-3032.19
443.175	-1156.25
443.384	1393.47
443.593	1522.49
443.803	-2126.99
444.012	-294.05
444.221	-644.26
444.43	4592.4
444.639	392.02
444.848	2159.41
445.057	-1309.85
445.266	-1467.54
445.475	-2423.94
445.684	-1377.43
445.893	2136.88
446.102	351.06
446.311	-3210.36
446.52	72.53
446.728	2951.98
446.937	-3335.29
447.146	-4009.07
447.355	301.9
447.564	-396.45
447.773	1440.58
447.982	1440.58
448.191	576.33
448.399	-1289.37
448.608	-1012.89
448.817	-699.55
449.026	955.21
449.235	-1539.22
449.443	996.17
449.652	-562.34
449.861	-1133.72
450.07	187.22
450.278	1624.89
450.487	-3232.89
450.696	21.33
450.904	-1324.18
451.113	-902.3
451.322	701.26
451.53	-644.26
451.739	3019.56
451.948	-1369.24
452.156	62.29
452.365	4311.83
452.574	756.55
452.782	234.32
452.991	-679.07
453.199	676.68
453.408	240.47
453.616	-1524.88
453.825	1090.37
454.033	1323.84
454.242	3234.6
454.45	3586.85
454.659	459.6
454.867	3975.96
455.076	-1215.64
455.284	-1059.99
455.493	-1827.98
455.701	-1127.58
455.91	3046.18
456.118	-982.17
456.326	-2231.43
456.535	2579.25
456.743	1055.56
456.951	-2290.82
457.16	1149.76
457.368	834.38
457.576	-1793.17
457.785	2714.41
457.993	-177.32
458.201	-1365.14
458.41	752.46
458.618	-918.68
458.826	-236.71
459.034	-2993.28
459.243	-1588.37
459.451	-48.3
459.659	-15.53
459.867	-640.16
460.075	-986.27
460.284	-199.85
460.492	-2294.92
460.7	-447.65
460.908	-744.61
461.116	-3003.52
461.324	-1324.18
461.532	-2432.13
461.741	-2129.03
461.949	-879.77
462.157	1884.98
462.365	-115.88
462.573	-105.64
462.781	342.86
462.989	-1019.04
463.197	-1629.33
463.405	-2231.43
463.613	-58.54
463.821	-2528.39
464.029	-15.53
464.237	-1221.78
464.445	-763.04
464.653	801.61
464.861	-435.36
465.069	1194.82
465.276	4852.49
465.484	-744.61
465.692	-728.22
465.9	-1014.94
466.108	-742.56
466.316	834.38
466.524	-736.42
466.731	-615.59
466.939	1815.35
467.147	39.76
467.355	-136.36
467.563	1407.81
467.77	772.94
467.978	-2618.5
468.186	500.56
468.393	2009.91
468.601	-427.17
468.809	-1961.1
469.017	-779.42
469.224	-1772.69
469.432	992.07
469.64	-1436.82
469.847	-2110.6
470.055	533.33
470.263	-1252.5
470.47	-1189.02
470.678	1456.96
470.885	-195.75
471.093	2681.64
471.3	738.12
471.508	-1160.34
471.716	-509.09
471.923	121.68
472.131	265.04
472.338	-1303.7
472.546	-851.1
472.753	2972.46
472.961	-1537.17
473.168	-234.66
473.375	-496.8
473.583	1100.61
473.79	-572.58
473.998	318.29
474.205	344.91
474.412	2048.82
474.62	-851.1
474.827	-1418.39
475.035	1446.72
475.242	-754.85
475.449	-1494.16
475.657	4051.74
475.864	3224.36
476.071	56.15
476.278	-978.08
476.486	-591.01
476.693	312.14
476.9	349.01
477.107	355.15
477.315	-1039.51
477.522	27.48
477.729	1624.89
477.936	-586.91
478.143	-1498.26
478.351	1418.05
478.558	-1299.61
478.765	-705.7
478.972	-339.11
479.179	428.88
479.386	779.08
479.593	938.82
479.8	867.14
480.007	-1711.25
480.215	-304.29
480.422	1047.37
480.629	-2344.07
480.836	1067.85
481.043	3037.99
481.25	-728.22
481.457	-1492.12
481.664	-722.08
481.871	559.95
482.078	-1445.01
482.284	-1571.99
482.491	2143.03
482.698	1764.15
482.905	-1246.36
483.112	-2155.66
483.319	150.36
483.526	166.74
483.733	2110.26
483.94	-2595.97
484.146	-1629.33
484.353	-115.88
484.56	-527.52
484.767	-3597.43
484.974	2097.97
485.18	1704.76
485.387	-566.43
485.594	-1293.46
485.801	1821.5
486.007	203.6
486.214	-1031.32
486.421	-1881.23
486.627	-220.33
486.834	625.48
487.041	502.61
487.247	-1289.37
487.454	-1488.02
487.661	355.15
487.867	607.05
488.074	-1748.11
488.281	850.76
488.487	-87.21
488.694	-978.08
488.9	-701.6
489.107	-1049.75
489.313	-871.58
489.52	-691.36
489.726	-1698.96
489.933	2765.61
490.139	2749.23
490.346	-408.74
490.552	267.09
490.759	-390.31
490.965	90.96
491.172	3132.2
491.378	-519.33
491.584	-29.87
491.791	1698.62
491.997	-122.02
492.204	-375.97
492.41	3171.11
492.616	-1807.5
492.823	-1502.36
493.029	-1412.25
493.235	2458.42
493.442	-169.13
493.648	152.4
493.854	-517.28
494.06	4778.76
494.267	717.64
494.473	-863.39
494.679	-1455.25
494.885	308.05
495.091	3250.98
495.298	848.71
495.504	-2544.77
495.71	-441.51
495.916	-1950.86
496.122	2671.4
496.328	633.68
496.535	695.11
496.741	-431.27
496.947	664.4
497.153	-281.77
497.359	443.21
497.565	478.03
497.771	1733.43
497.977	-132.26
498.183	-736.42
498.389	871.24
498.595	-1647.76
498.801	586.57
499.007	846.66
499.213	-425.12
499.419	-728.22
499.625	-42.15
499.831	3232.55
500.037	-752.8
500.243	-1381.53
500.448	-625.83
500.654	977.73
500.86	2034.49
501.066	-591.01
501.272	2460.46
501.478	-2071.69
501.684	-644.26
501.889	-1803.41
502.095	-1578.13
502.301	-480.42
502.507	516.94
502.712	-558.24
502.918	-1186.97
503.124	-1121.43
503.33	987.97
503.535	-810.14
503.741	97.11
503.947	-349.35
504.152	-380.07
504.358	-2364.55
504.564	-556.19
504.769	312.14
504.975	4344.6
505.181	-119.98
505.386	-1893.52
505.592	-781.47
505.797	801.61
506.003	-2618.5
506.208	1817.4
506.414	-578.72
506.619	70.48
506.825	596.81
507.03	-1981.58
507.236	-1199.26
507.441	410.45
507.647	-769.18
507.852	9.05
508.058	1196.87
508.263	1157.96
508.469	-492.71
508.674	-2382.98
508.879	-568.48
509.085	-185.51
509.29	-1649.81
509.495	-1326.23
509.701	-1019.04
509.906	824.14
510.111	-613.54
510.317	1020.74
510.522	211.79
510.727	2245.43
510.933	-787.61
511.138	207.7
511.343	-828.57
511.548	541.52
511.754	-1594.51
511.959	2177.84
512.164	-72.87
512.369	3269.41
512.574	3556.13
512.779	-1469.59
512.985	-517.28
513.19	1010.5
513.395	95.06
513.6	-914.59
513.805	-369.83
514.01	2073.4
514.215	-234.66
514.42	3009.32
514.625	-504.99
514.83	2652.97
515.035	-136.36
515.24	13.14
515.445	3021.61
515.65	1983.29
515.855	383.82
516.06	-666.78
516.265	609.1
516.47	1389.38
516.675	189.27
516.88	-2342.02
517.085	201.55
517.29	-521.38
517.495	351.06
517.7	1661.76
517.904	-228.52
518.109	611.15
518.314	-457.89
518.519	-228.52
518.724	783.18
518.928	602.96
519.133	-533.67
519.338	203.6
519.543	269.14
519.747	1028.93
519.952	2876.2
520.157	6263.54
520.362	842.57
520.566	2798.38
520.771	-1922.19
520.976	1166.15
521.18	3955.48
521.385	-980.12
521.59	-928.92
521.794	535.37
521.999	2147.12
522.203	-1113.24
522.408	-554.15
522.612	-1019.04
522.817	654.16
523.022	2237.24
523.226	-205.99
523.431	-1178.78
523.635	183.12
523.84	2147.12
524.044	-967.84
524.249	1692.48
524.453	2980.65
524.657	133.97
524.862	6322.93
525.066	-861.34
525.271	-179.37
525.475	1350.46
525.679	-105.64
525.884	-1817.74
526.088	1456.96
526.292	2581.29
526.497	244.56
526.701	-806.05
526.905	-279.72
527.11	217.94
527.314	-185.51
527.518	3509.02
527.722	-933.02
527.927	1284.93
528.131	-1967.24
528.335	5542.66
528.539	1764.15
528.744	2597.68
528.948	-1647.76
529.152	-1215.64
529.356	2550.57
529.56	658.25
529.764	27.48
529.968	170.83
530.173	8153.82
530.377	6601.46
530.581	-1541.27
530.785	1708.86
530.989	-480.42
531.193	328.53
531.397	-1315.99
531.601	322.38
531.805	1735.48
532.009	1749.82
532.213	33.62
532.417	961.35
532.621	1995.57
532.825	3441.44
533.029	-74.92
533.233	754.51
533.436	686.92
533.64	213.84
533.844	1739.58
534.048	-531.62
534.252	1340.22
534.456	3568.41
534.66	2290.48
534.863	-9.39
535.067	273.23
535.271	2513.71
535.475	-476.32
535.679	1381.18
535.882	3183.4
536.086	2063.16
536.29	2212.66
536.493	705.35
536.697	1557.31
536.901	1157.96
537.104	2014.01
537.308	1076.04
537.512	1352.51
537.715	4047.64
537.919	1733.43
538.123	1999.67
538.326	1502.01
538.53	2786.09
538.733	3451.68
538.937	2263.86
539.141	1817.4
539.344	3015.46
539.548	2022.2
539.751	4623.12
539.955	5749.5
540.158	7406.31
540.362	5077.77
540.565	3027.75
540.768	4434.71
540.972	11178.67
541.175	9022.16
541.379	6929.13
541.582	6355.7
541.785	8200.92
541.989	10011.32
542.192	5276.42
542.396	6527.73
542.599	8813.26
542.802	9026.25
543.005	7879.39
543.209	6415.09
543.412	8237.78
543.615	8143.58
543.819	8270.55
544.022	6494.96
544.225	8112.86
544.428	8100.57
544.631	10414.77
544.835	7285.48
545.038	6396.66
545.241	6636.27
545.444	9859.77
545.647	8303.32
545.85	6980.33
546.054	5704.45
546.257	3887.9
546.46	6804.21
546.663	6261.49
546.866	7088.87
547.069	7246.57
547.272	5446.4
547.475	6259.45
547.678	5411.59
547.881	4158.23
548.084	4406.03
548.287	4993.8
548.49	2636.59
548.693	4018.97
548.896	1825.59
549.099	4594.45
549.302	2603.82
549.505	2118.45
549.707	1682.24
549.91	4162.33
550.113	1874.74
550.316	1692.48
550.519	4262.68
550.722	4219.67
550.924	1829.69
551.127	3078.95
551.33	2179.89
551.533	1456.96
551.736	1237.83
551.938	961.35
552.141	2695.98
552.344	613.2
552.546	3031.85
552.749	1622.84
552.952	1712.96
553.154	1641.28
553.357	1729.34
553.56	1512.25
553.762	7330.53
553.965	5917.44
554.168	1893.18
554.37	3853.08
554.573	2689.84
554.775	4160.28
554.978	3244.84
555.18	332.62
555.383	1071.94
555.585	5055.24
555.788	2407.22
555.99	1162.05
556.193	1889.08
556.395	3253.03
556.598	936.78
556.8	1596.22
557.003	1882.94
557.205	5724.93
557.407	1534.78
557.61	1964.86
557.812	2261.81
558.015	4397.84
558.217	987.97
558.419	2018.1
558.622	3736.35
558.824	2118.45
559.026	893.77
559.228	1717.05
559.431	3369.76
559.633	3203.88
559.835	1581.89
560.037	3128.1
560.24	4655.89
560.442	4010.78
560.644	1553.21
560.846	3527.46
561.048	3648.29
561.25	4559.63
561.453	3132.2
561.655	2089.78
561.857	2480.94
562.059	1893.18
562.261	4737.81
562.463	3027.75
562.665	2822.95
562.867	3848.99
563.069	3842.84
563.271	4715.28
563.473	3463.97
563.675	3281.7
563.877	3124.01
564.079	2083.64
564.281	5247.75
564.483	3826.46
564.685	2878.25
564.887	2362.16
565.089	4524.82
565.291	4518.67
565.493	1669.95
565.694	5462.79
565.896	1841.98
566.098	4082.46
566.3	5317.38
566.502	2726.7
566.704	5534.46
566.905	668.49
567.107	1270.59
567.309	1313.6
567.511	4100.89
567.712	1203.01
567.914	2655.02
568.116	428.88
568.317	4627.21
568.519	3218.21
568.721	215.89
568.922	129.88
569.124	2550.57
569.326	5171.97
569.527	2456.37
569.729	1930.04
569.93	6707.95
570.132	1874.74
570.334	4129.56
570.535	789.32
570.737	1719.1
570.938	6421.24
571.14	2063.16
571.341	3609.37
571.543	7090.92
571.744	2673.45
571.946	4234
572.147	1618.75
572.348	5481.22
572.55	4295.44
572.751	5159.69
572.953	2231.09
573.154	4274.96
573.355	6652.66
573.557	9079.5
573.758	3580.7
573.959	3320.61
574.161	5077.77
574.362	5511.94
574.563	7461.6
574.765	5751.55
574.966	6189.81
575.167	2300.72
575.368	5501.7
575.569	3765.02
575.771	6089.46
575.972	2945.83
576.173	4215.57
576.374	5458.69
576.575	4954.89
576.776	1536.83
576.978	2399.02
577.179	3203.88
577.38	4492.05
577.581	2665.26
577.782	3367.71
577.983	5133.06
578.184	5532.42
578.385	3367.71
578.586	4145.94
578.787	2716.46
578.988	4074.26
579.189	1620.8
579.39	2538.29
579.591	3595.04
579.792	2544.43
579.993	4684.56
580.194	4700.94
580.395	6073.08
580.596	4178.71
580.796	5196.55
580.997	2513.71
581.198	3506.98
581.399	5608.19
581.6	6329.08
581.801	2726.7
582.001	6734.57
582.202	2323.25
582.403	1409.86
582.604	7748.32
582.804	3472.16
583.005	4018.97
583.206	893.77
583.407	5274.37
583.607	3277.6
583.808	2802.47
584.009	5151.49
584.209	4741.9
584.41	1444.67
584.61	3201.83
584.811	3144.49
585.012	2360.11
585.212	1762.11
585.413	3296.04
585.613	3318.56
585.814	1864.5
586.014	4958.99
586.215	2571.05
586.415	3240.74
586.616	2126.64
586.816	2603.82
587.017	4610.83
587.217	1870.65
587.418	6161.14
587.618	2614.06
587.819	2642.73
588.019	1176.39
588.219	518.99
588.42	2915.11
588.62	883.53
588.82	856.9
589.021	1413.95
589.221	3210.02
589.421	1393.47
589.622	3949.34
589.822	1137.48
590.022	5462.79
590.222	3380
590.423	1917.75
590.623	805.71
590.823	2861.87
591.023	2790.19
591.223	525.13
591.423	5731.07
591.624	2591.53
591.824	2249.52
592.024	1071.94
592.224	1856.31
592.424	5305.09
592.624	2388.78
592.824	2960.17
593.024	1981.24
593.224	4934.41
593.424	4680.46
593.624	2370.35
593.824	2407.22
594.024	2865.96
594.224	1125.19
594.424	2425.65
594.624	283.47
594.824	1547.07
595.024	1231.68
595.224	2460.46
595.424	654.16
595.624	691.02
595.824	1168.2
596.023	3975.96
596.223	3885.85
596.423	1420.1
596.623	2708.27
596.823	-289.96
597.023	-861.34
597.222	6259.45
597.422	826.18
597.622	-386.21
597.822	865.1
598.021	2294.58
598.221	521.04
598.421	-660.64
598.62	1436.48
598.82	416.59
599.02	4840.2
599.219	4516.62
599.419	2337.59
599.618	445.26
599.818	2614.06
600.018	-683.17
600.217	807.75
600.417	4092.69
600.616	1409.86
600.816	1768.25
601.015	2022.2
601.215	832.33
601.414	680.78
601.614	629.58
601.813	-541.86
602.013	1934.14
602.212	1387.33
602.412	152.4
602.611	2474.8
602.81	2018.1
603.01	2960.17
603.209	1520.45
603.408	-1232.02
603.608	2548.53
603.807	944.97
604.006	6058.74
604.206	84.82
604.405	1289.03
604.604	1760.06
604.803	1477.44
605.003	115.54
605.202	-72.87
605.401	746.31
605.6	2310.96
605.8	283.47
605.999	265.04
606.198	1618.75
606.397	2014.01
606.596	656.2
606.795	2693.93
606.994	3666.72
607.193	695.11
607.393	3640.09
607.592	3650.33
607.791	1430.34
607.99	3820.32
608.189	3824.41
608.388	4698.89
608.587	3986.2
608.786	2253.62
608.985	492.37
609.184	2048.82
609.382	3414.82
609.581	2749.23
609.78	4688.65
609.979	4115.22
610.178	2925.35
610.377	2480.94
610.576	424.78
610.775	3109.67
610.973	3183.4
611.172	3906.33
611.371	2601.77
611.57	2026.29
611.769	4930.31
611.967	1579.84
612.166	4739.85
612.365	2497.33
612.564	2908.97
612.762	3207.97
612.961	3361.57
613.16	2130.74
613.358	2949.93
613.557	-142.5
613.756	3011.37
613.954	4250.39
614.153	1053.51
614.351	1440.58
614.55	381.78
614.749	3543.84
614.947	2042.68
615.146	686.92
615.344	1913.66
615.543	109.4
615.741	2222.9
615.94	2876.2
616.138	787.27
616.337	2986.79
616.535	1164.1
616.733	-54.44
616.932	1348.42
617.13	3719.96
617.329	5149.45
617.527	-967.84
617.725	-1541.27
617.924	-1076.38
618.122	219.99
618.32	-816.29
618.519	-1504.4
618.717	2433.84
618.915	1921.85
619.114	1073.99
619.312	-11.43
619.51	463.69
619.708	2206.52
619.906	-627.87
620.105	-582.82
620.303	-470.18
620.501	4014.87
620.699	-1504.4
620.897	959.3
621.095	2079.54
621.293	-1152.15
621.492	1909.56
621.69	-38.06
621.888	973.64
622.086	3535.65
622.284	1063.75
622.482	471.89
622.68	682.83
622.878	195.41
623.076	-33.96
623.274	111.44
623.472	480.08
623.67	1370.94
623.868	-2548.87
624.065	805.71
624.263	478.03
624.461	906.06
624.659	-566.43
624.857	3392.29
625.055	2427.7
625.253	-302.25
625.45	-68.78
625.648	166.74
625.846	256.85
626.044	248.66
626.242	537.42
626.439	1944.38
626.637	553.8
626.835	-169.13
627.032	2030.39
627.23	-1520.79
627.428	3382.05
627.626	1182.53
627.823	424.78
628.021	2638.64
628.218	2040.63
628.416	1477.44
628.614	-1270.94
628.811	-1690.77
629.009	-711.84
629.206	-384.16
629.404	-986.27
629.601	119.64
629.799	-1932.43
629.996	3169.06
630.194	1098.56
630.391	789.32
630.589	-664.74
630.786	2036.53
630.984	349.01
631.181	-2159.75
631.378	-818.33
631.576	1899.32
631.773	-2299.02
631.97	-1440.92
632.168	-1662.1
632.365	2.9
632.562	420.69
632.76	-978.08
632.957	338.77
633.154	-52.39
633.352	559.95
633.549	-601.25
633.746	2153.27
633.943	858.95
634.14	-744.61
634.338	2145.08
634.535	-367.78
634.732	-349.35
634.929	2900.78
635.126	654.16
635.323	-79.02
635.52	2155.32
635.717	549.71
635.915	-140.46
636.112	-136.36
636.309	-1696.91
636.506	-763.04
636.703	-2499.72
636.9	-296.1
637.097	5315.33
637.294	293.71
637.491	-1086.62
637.688	2114.36
637.884	-1119.39
638.081	-582.82
638.278	-191.66
638.475	-242.85
638.672	-660.64
638.869	-765.09
639.066	6050.55
639.263	695.11
639.459	711.5
639.656	-2471.04
639.853	-1793.17
640.05	4934.41
640.246	2073.4
640.443	-218.28
640.64	-2808.96
640.837	324.43
641.033	-1836.17
641.23	-85.16
641.427	-347.3
641.623	713.55
641.82	-697.5
642.017	-1205.4
642.213	-550.05
642.41	-591.01
642.606	1153.86
642.803	1252.16
643	283.47
643.196	-1344.66
643.393	2040.63
643.589	375.63
643.786	-1137.82
643.982	4313.88
644.179	1456.96
644.375	-955.55
644.571	-443.56
644.768	-1588.37
644.964	-222.38
645.161	-322.73
645.357	2810.67
645.553	371.54
645.75	2003.77
645.946	78.68
646.143	-195.75
646.339	326.48
646.535	371.54
646.731	1209.15
646.928	-119.98
647.124	-1782.93
647.32	2458.42
647.516	2097.97
647.713	-1473.68
647.909	-50.35
648.105	-593.06
648.301	-2708.61
648.497	486.22
648.693	-666.78
648.89	-408.74
649.086	-160.94
649.282	-1027.23
649.478	-627.87
649.674	181.07
649.87	2222.9
650.066	1088.32
650.262	-1223.83
650.458	1600.32
650.654	-1494.16
650.85	357.2
651.046	-421.03
651.242	-197.8
651.438	301.9
651.634	-1758.35
651.83	-685.22
652.026	484.17
652.222	-312.49
652.417	-373.92
652.613	1258.31
652.809	-1463.44
653.005	-933.02
653.201	2448.18
653.397	-1172.63
653.592	-230.57
653.788	-1275.03
653.984	1643.32
654.18	4891.4
654.375	-943.26
654.571	-142.5
654.767	-238.76
654.962	-1166.49
655.158	-2630.79
655.354	-720.03
655.549	1065.8
655.745	1043.27
655.941	3588.89
656.136	-828.57
656.332	-1373.33
656.527	-275.62
656.723	1538.88
656.918	-2038.92
657.114	-670.88
657.309	-343.21
657.505	711.5
657.7	1551.17
657.896	-1295.51
658.091	-1207.45
658.287	-840.86
658.482	-2385.03
658.678	-1197.21
658.873	246.61
659.068	3257.12
659.264	-586.91
659.459	33630.55
659.654	754.51
659.85	2394.93
660.045	-1449.11
660.24	2040.63
660.436	5354.24
660.631	-257.19
660.826	1907.51
661.021	295.76
661.217	2343.73
661.412	-783.52
661.607	-2270.34
661.802	-515.23
661.997	-429.22
662.192	410.45
662.388	-2681.99
662.583	-711.84
662.778	459.6
662.973	-1881.23
663.168	-2636.93
663.363	-1100.95
663.558	3982.1
663.753	1473.34
663.948	-2028.68
664.143	-1670.29
664.338	150.36
664.533	1082.18
664.728	-662.69
664.923	-1268.89
665.118	56.15
665.313	-916.64
665.508	1272.64
665.703	1223.49
665.897	1082.18
666.092	330.58
666.287	475.98
666.482	-808.09
666.677	1903.42
666.872	1616.7
667.066	-867.49
667.261	-1141.91
667.456	2.9
667.651	1444.67
667.845	1870.65
668.04	533.33
668.235	-1727.63
668.429	1203.01
668.624	101.2
668.819	-779.42
669.013	-1860.75
669.208	779.08
669.402	-1633.43
669.597	-97.45
669.792	-765.09
669.986	2884.39
670.181	-2313.35
670.375	181.07
670.57	-1799.31
670.764	-1105.05
670.959	-517.28
671.153	-48.3
671.348	-451.75
671.542	2431.79
671.737	-2088.07
671.931	-2733.18
672.125	416.59
672.32	1073.99
672.514	1272.64
672.709	-1526.93
672.903	-244.9
673.097	-765.09
673.291	-1272.98
673.486	1510.21
673.68	64.34
673.874	-990.36
674.069	-1215.64
674.263	793.42
674.457	1418.05
674.651	801.61
674.845	-820.38
675.04	3793.69
675.234	-1268.89
675.428	-359.59
675.622	-1377.43
675.816	-1717.39
676.01	-754.85
676.204	-271.53
676.398	-103.59
676.592	-724.13
676.787	-810.14
676.981	76.63
677.175	162.64
677.369	-3525.75
677.563	-89.26
677.757	-173.22
677.95	-1475.73
678.144	-2727.04
678.338	-1072.28
678.532	584.52
678.726	-2524.29
678.92	3164.97
679.114	-54.44
679.308	23.38
679.502	-4336.74
679.695	-2182.28
679.889	-599.2
680.083	-2843.78
680.277	-2401.41
680.471	-402.6
680.664	-1471.64
680.858	289.62
681.052	-156.84
681.245	-1184.92
681.439	643.92
681.633	-1035.42
681.826	-406.69
682.02	-1006.75
682.214	789.32
682.407	-1313.94
682.601	-814.24
682.795	-302.25
682.988	-517.28
683.182	-1227.93
683.375	-599.2
683.569	-806.05
683.762	740.17
683.956	1870.65
684.149	1694.52
684.343	2005.81
684.536	-1397.91
684.73	146.26
684.923	-2464.9
685.116	-2024.59
685.31	2231.09
685.503	838.47
685.696	-267.43
685.89	1041.22
686.083	-1614.99
686.276	-896.16
686.47	56.15
686.663	-631.97
686.856	-308.39
687.05	1274.69
687.243	-500.9
687.436	1366.85
687.629	1815.35
687.822	414.54
688.016	-746.66
688.209	-959.64
688.402	447.31
688.595	-230.57
688.788	-2301.06
688.981	-1799.31
689.174	2855.72
689.367	174.93
689.561	-724.13
689.754	-2686.08
689.947	-728.22
690.14	-111.78
690.333	-3318.9
690.526	-887.97
690.719	1698.62
690.912	1895.22
691.104	293.71
691.297	-232.62
691.49	287.57
691.683	-982.17
691.876	-2884.73
692.069	2695.98
692.262	-66.73
692.455	289.62
692.647	-439.46
692.84	-1664.15
693.033	772.94
693.226	494.41
693.419	-930.97
693.611	-674.98
693.804	129.88
693.997	572.24
694.189	-253.09
694.382	-1277.08
694.575	3056.42
694.767	-54.44
694.96	-1522.84
695.153	-277.67
695.345	244.56
695.538	1901.37
695.731	349.01
695.923	-535.71
696.116	185.17
696.308	1702.72
696.501	39.76
696.693	2208.56
696.886	-976.03
697.078	-2141.32
697.271	375.63
697.463	639.82
697.655	-240.81
697.848	127.83
698.04	-1158.3
698.233	-2290.82
698.425	-627.87
698.617	1399.62
698.81	-1309.85
699.002	-935.07
699.194	1944.38
699.387	985.93
699.579	-1207.45
699.771	-1823.89
699.963	-3282.04
700.156	-1840.27
700.348	1004.36
700.54	47.96
700.732	-1127.58
700.924	-627.87
701.117	-658.59
701.309	-1064.09
701.501	-2200.71
701.693	4623.12
701.885	-910.49
702.077	1147.72
702.269	324.43
702.461	2028.34
702.653	164.69
702.845	-597.15
703.037	344.91
703.229	2014.01
703.421	-961.69
703.613	-1365.14
703.805	3429.15
703.997	465.74
704.189	1223.49
704.381	-732.32
704.573	3814.17
704.765	-781.47
704.957	1452.86
705.148	-115.88
705.34	-799.9
705.532	-70.83
705.724	-1205.4
705.916	-1936.53
706.107	1610.56
706.299	332.62
706.491	2265.91
706.682	1493.82
706.874	-691.36
707.066	-369.83
707.258	-1508.5
707.449	-410.79
707.641	5757.69
707.832	-21.67
708.024	-779.42
708.216	-150.7
708.407	846.66
708.599	-613.54
708.79	1962.81
708.982	-1596.56
709.173	-605.35
709.365	-1008.8
709.556	-232.62
709.748	-486.56
709.939	228.18
710.131	443.21
710.322	-2202.76
710.514	2894.63
710.705	-713.89
710.896	482.13
711.088	480.08
711.279	594.76
711.47	2001.72
711.662	1147.72
711.853	-1410.2
712.044	-2442.37
712.236	211.79
712.427	-109.74
712.618	-2323.59
712.809	-1225.88
713	-480.42
713.192	1481.53
713.383	-896.16
713.574	371.54
713.765	0.85
713.956	-797.85
714.147	2208.56
714.338	-1715.34
714.53	1563.45
714.721	2609.97
714.912	-1211.54
715.103	-2221.19
715.294	592.72
715.485	1020.74
715.676	-2315.4
715.867	-2829.44
716.058	-754.85
716.249	1579.84
716.44	-410.79
716.63	-1645.71
716.821	-349.35
717.012	1360.7
717.203	-1365.14
717.394	-791.71
717.585	-2503.81
717.776	-756.9
717.966	-1232.02
718.157	-1557.65
718.348	349.01
718.539	-101.55
718.73	1098.56
718.92	2032.44
719.111	-965.79
719.302	389.97
719.492	-1033.37
719.683	772.94
719.874	-1307.8
720.064	3943.19
720.255	-2169.99
720.446	-339.11
720.636	1604.41
720.827	1286.98
721.017	510.8
721.208	-783.52
721.398	-980.12
721.589	932.68
721.779	187.22
721.97	-3624.05
722.16	-1463.44
722.351	-2258.06
722.541	-926.88
722.732	1184.58
722.922	906.06
723.112	1874.74
723.303	-1848.46
723.493	-1741.97
723.683	1186.63
723.874	2384.69
724.064	533.33
724.254	2175.8
724.445	-969.88
724.635	1047.37
724.825	-2899.07
725.015	-767.13
725.206	-677.02
725.396	1342.27
725.586	-1504.4
725.776	885.58
725.966	3605.28
726.157	1301.31
726.347	2145.08
726.537	-173.22
726.727	2118.45
726.917	-1359
727.107	-1051.8
727.297	-2946.17
727.487	2079.54
727.677	-912.54
727.867	215.89
728.057	-394.4
728.247	691.02
728.437	801.61
728.627	-1090.71
728.817	-844.96
729.007	344.91
729.197	693.07
729.387	-638.11
729.576	-349.35
729.766	1692.48
729.956	-513.19
730.146	-1039.51
730.336	-1866.89
730.525	-435.36
730.715	-1103
730.905	-126.12
731.095	-814.24
731.284	695.11
731.474	1641.28
731.664	-818.33
731.853	-2565.25
732.043	-1348.76
732.233	-1809.55
732.422	1344.32
732.612	-1500.31
732.802	432.97
732.991	232.27
733.181	-3071.1
733.37	-1520.79
733.56	-812.19
733.749	637.77
733.939	-2229.38
734.128	1008.45
734.318	2569.01
734.507	-847.01
734.697	-2444.42
734.886	1477.44
735.076	-1692.82
735.265	1866.55
735.454	402.26
735.644	-1827.98
735.833	-1402.01
736.022	27.48
736.212	-1039.51
736.401	-615.59
736.59	1239.87
736.779	-650.4
736.969	-2276.49
737.158	232.27
737.347	-1514.64
737.536	-277.67
737.726	-1508.5
737.915	1137.48
738.104	803.66
738.293	-707.74
738.482	52.05
738.671	-1330.33
738.86	-2595.97
739.049	951.11
739.238	-1281.18
739.427	-781.47
739.616	-2002.06
739.806	-1870.99
739.995	-3105.92
740.183	-1948.81
740.372	-136.36
740.561	-636.06
740.75	-4015.21
740.939	93.01
741.128	201.55
741.317	1098.56
741.506	-1023.13
741.695	185.17
741.884	869.19
742.072	1596.22
742.261	-187.56
742.45	-423.08
742.639	549.71
742.828	316.24
743.016	-756.9
743.205	-1805.46
743.394	-1496.21
743.582	1186.63
743.771	-13.48
743.96	863.05
744.148	23.38
744.337	-5.29
744.526	615.24
744.714	-887.97
744.903	3986.2
745.091	27.48
745.28	1850.17
745.468	1100.61
745.657	568.14
745.845	508.75
746.034	-652.45
746.222	187.22
746.411	494.41
746.599	994.12
746.788	791.37
746.976	-820.38
747.165	97.11
747.353	660.3
747.541	4750.09
747.73	-1793.17
747.918	2161.46
748.106	1520.45
748.295	2253.62
748.483	1499.97
748.671	838.47
748.859	987.97
749.048	2763.56
749.236	553.8
749.424	248.66
749.612	2945.83
749.8	719.69
749.989	848.71
750.177	1432.38
750.365	2140.98
750.553	2132.79
750.741	-804
750.929	5298.95
751.117	983.88
751.305	1719.1
751.493	711.5
751.681	-201.9
751.869	1241.92
752.057	2382.64
752.245	736.07
752.433	2960.17
752.621	1813.31
752.809	3091.24
752.997	2784.04
753.185	2517.81
753.373	1577.79
753.56	1436.48
753.748	2681.64
753.936	1821.5
754.124	2263.86
754.312	1135.43
754.499	4332.31
754.687	2685.74
754.875	3312.42
755.063	1352.51
755.25	3525.41
755.438	4166.42
755.626	3197.73
755.813	1243.97
756.001	3336.99
756.189	930.63
756.376	1542.97
756.564	2022.2
756.751	3189.54
756.939	1518.4
757.127	4758.28
757.314	2177.84
757.502	768.84
757.689	4117.27
757.877	3298.08
758.064	3568.41
758.251	1284.93
758.439	3402.53
758.626	4778.76
758.814	1399.62
759.001	3928.86
759.188	3928.86
759.376	232.27
759.563	3525.41
759.75	3496.74
759.938	1440.58
760.125	1602.36
760.312	2196.28
760.5	1868.6
760.687	3228.45
760.874	1231.68
761.061	3293.99
761.248	-203.94
761.436	6122.23
761.623	1823.55
761.81	2798.38
761.997	3445.54
762.184	1866.55
762.371	1506.11
762.558	2194.23
762.745	4068.12
762.932	2495.28
763.119	2773.8
763.306	2532.14
763.493	2618.16
763.68	2837.29
763.867	3959.58
764.054	846.66
764.241	1606.46
764.428	4172.57
764.615	2157.36
764.802	2177.84
764.989	1141.57
765.176	2556.72
765.362	3560.22
765.549	1598.27
765.736	10355.38
765.923	4049.69
766.11	3947.29
766.296	2120.5
766.483	-103.59
766.67	2677.55
766.857	3506.98
767.043	1248.07
767.23	3013.42
767.417	4227.86
767.603	3124.01
767.79	1760.06
767.976	4750.09
768.163	4340.5
768.35	3224.36
768.536	2054.97
768.723	1973.05
768.909	4014.87
769.096	4702.99
769.282	2345.78
769.469	1788.73
769.655	5057.29
769.842	3023.66
770.028	686.92
770.214	2548.53
770.401	2788.14
770.587	1530.69
770.774	-648.35
770.96	-890.01
771.146	2720.56
771.333	3158.82
771.519	1635.13
771.705	2601.77
771.891	1264.45
772.078	7105.26
772.264	3418.91
772.45	1866.55
772.636	2534.19
772.822	1762.11
773.009	5636.86
773.195	3228.45
773.381	3037.99
773.567	3588.89
773.753	1387.33
773.939	518.99
774.125	357.2
774.311	2339.63
774.497	574.28
774.683	1317.7
774.869	3912.47
775.055	5282.56
775.241	1211.2
775.427	2679.6
775.613	1147.72
775.799	4567.82
775.985	875.34
776.171	2315.06
776.357	2302.77
776.543	2302.77
776.729	1510.21
776.914	2280.24
777.1	3400.48
777.286	6175.48
777.472	1819.45
777.657	1706.81
777.843	5016.33
778.029	4997.9
778.215	2710.32
778.4	2251.57
778.586	5325.57
778.772	3674.91
778.957	3273.51
779.143	944.97
779.329	2192.18
779.514	1164.1
779.7	2343.73
779.885	-66.73
780.071	2831.15
780.256	2810.67
780.442	2566.96
780.627	133.97
780.813	3425.06
780.998	4221.72
781.184	3228.45
781.369	938.82
781.555	3384.1
781.74	2044.73
781.925	4193.05
782.111	1514.3
782.296	2253.62
782.481	2925.35
782.667	2407.22
782.852	3734.3
783.037	2046.77
783.223	2016.05
783.408	2075.45
783.593	3398.43
783.778	1426.24
783.963	2792.23
784.149	3408.67
784.334	2147.12
784.519	2540.33
784.704	934.73
784.889	2614.06
785.074	1352.51
785.259	2091.83
785.444	5022.47
785.629	983.88
785.814	455.5
785.999	1964.86
786.184	5401.35
786.369	1467.2
786.554	123.73
786.739	3746.59
786.924	3119.91
787.109	2622.25
787.294	3939.1
787.479	3627.81
787.664	2480.94
787.849	3812.12
788.034	3207.97
788.218	4330.26
788.403	2800.43
788.588	3920.67
788.773	3142.44
788.957	1461.06
789.142	4160.28
789.327	2671.4
789.512	1901.37
789.696	5966.59
789.881	6355.7
790.066	2460.46
790.25	5389.06
790.435	2718.51
790.619	4326.16
790.804	3580.7
790.989	2970.41
791.173	5876.48
791.358	3658.53
791.542	1966.9
791.727	2493.23
791.911	2151.22
792.096	1432.38
792.28	2083.64
792.465	2396.98
792.649	1733.43
792.833	3777.31
793.018	2179.89
793.202	3420.96
793.386	5159.69
793.571	4268.82
793.755	3003.18
793.939	2028.34
794.124	2679.6
794.308	3242.79
794.492	2095.93
794.676	1864.5
794.861	2693.93
795.045	4070.17
795.229	760.65
795.413	3793.69
795.597	2263.86
795.781	2990.89
795.966	5634.82
796.15	2919.21
796.334	7037.67
796.518	5497.6
796.702	2063.16
796.886	3740.44
797.07	5403.39
797.254	4313.88
797.438	2347.83
797.622	2288.43
797.806	3296.04
797.99	4483.86
798.174	3355.43
798.358	5370.63
798.541	5329.67
798.725	5985.02
798.909	3302.18
799.093	4113.17
799.277	3705.63
799.461	4950.79
799.644	228.18
799.828	3380
800.012	5913.34
800.196	3316.51
800.379	3406.63
800.563	1964.86
800.747	5425.92
800.93	3027.75
801.114	3060.52
801.298	2267.95
801.481	5473.03
801.665	5677.82
801.848	1725.24
802.032	2997.03
802.216	7088.87
802.399	3117.86
802.583	1770.3
802.766	1143.62
802.95	3894.04
803.133	5384.96
803.317	1936.18
803.5	1704.76
803.683	3517.22
803.867	2038.58
804.05	4889.35
804.233	5823.23
804.417	6327.03
804.6	3054.37
804.783	3891.99
804.967	5640.96
805.15	4358.93
805.333	3928.86
805.517	4395.79
805.7	2122.55
805.883	3220.26
806.066	5206.79
806.249	5610.24
806.432	1895.22
806.616	3906.33
806.799	2005.81
806.982	2880.3
807.165	4051.74
807.348	3832.6
807.531	2554.67
807.714	2960.17
807.897	3971.86
808.08	4592.4
808.263	5020.42
808.446	4862.73
808.629	3957.53
808.812	2966.31
808.995	3640.09
809.178	5755.65
809.361	5366.53
809.544	5149.45
809.726	6511.35
809.909	5298.95
810.092	4795.15
810.275	5053.19
810.458	7232.23
810.64	5274.37
810.823	4877.07
811.006	4170.52
811.189	6277.88
811.371	2958.12
811.554	3812.12
811.737	5251.85
811.919	5362.44
812.102	3050.28
812.285	1796.92
812.467	4565.78
812.65	3500.83
812.832	2771.76
813.015	5509.89
813.197	5260.04
813.38	5169.93
813.562	6144.76
813.745	2294.58
813.927	1887.03
814.11	5237.51
814.292	3261.22
814.475	2401.07
814.657	3207.97
814.839	4487.95
815.022	2333.49
815.204	6750.96
815.386	5915.39
815.569	5503.75
815.751	1532.73
815.933	5219.08
816.116	5028.62
816.298	5675.77
816.48	3336.99
816.662	2775.85
816.844	3832.6
817.027	3640.09
817.209	2956.07
817.391	2173.75
817.573	3636
817.755	3410.72
817.937	3990.3
818.119	2911.02
818.301	2810.67
818.483	3494.69
818.665	2929.45
818.847	4520.72
819.029	3889.95
819.211	2245.43
819.393	3783.45
819.575	6437.62
819.757	5608.19
819.939	4258.58
820.121	3717.92
820.303	3978.01
820.485	7029.48
820.666	6447.86
820.848	6253.3
821.03	3719.96
821.212	5372.68
821.394	1674.04
821.575	4231.96
821.757	6048.51
821.939	4211.48
822.121	4262.68
822.302	6671.09
822.484	5227.27
822.666	1250.11
822.847	3070.76
823.029	916.3
823.21	4854.54
823.392	1510.21
823.573	3572.51
823.755	2190.13
823.937	2347.83
824.118	2657.07
824.3	8510.16
824.481	2593.58
824.662	2833.19
824.844	3664.67
825.025	4842.25
825.207	1788.73
825.388	3607.33
825.569	2349.87
825.751	2937.64
825.932	6200.05
826.113	1749.82
826.295	4815.63
826.476	4242.2
826.657	3361.57
826.839	3144.49
827.02	4410.13
827.201	6998.76
827.382	3463.97
827.563	4711.18
827.744	3029.8
827.926	3984.15
828.107	5466.88
828.288	2218.8
828.469	4033.3
828.65	4764.43
828.831	1379.14
829.012	3496.74
829.193	5649.15
829.374	2765.61
829.555	5546.75
829.736	8960.72
829.917	6654.7
830.098	5323.52
830.279	1286.98
830.46	2612.01
830.641	3590.94
830.822	3633.95
831.002	5337.86
831.183	2706.22
831.364	4967.18
831.545	4858.64
831.726	3558.18
831.906	3386.15
832.087	4836.11
832.268	4295.44
832.449	5661.44
832.629	1633.08
832.81	2870.06
832.991	2345.78
833.171	4172.57
833.352	4002.58
833.532	5403.39
833.713	2806.57
833.894	3181.35
834.074	1274.69
834.255	2532.14
834.435	2523.95
834.616	2538.29
834.796	3062.57
834.977	4461.33
835.157	6845.16
835.338	2472.75
835.518	1344.32
835.698	3509.02
835.879	2138.93
836.059	3664.67
836.239	3429.15
836.42	3377.95
836.6	3777.31
836.78	1096.52
836.961	2310.96
837.141	4674.32
837.321	1758.01
837.501	6773.49
837.682	2407.22
837.862	2898.73
838.042	8706.77
838.222	2241.33
838.402	2562.86
838.582	2962.22
838.763	3697.44
838.943	2759.47
839.123	5323.52
839.303	3410.72
839.483	4606.74
839.663	516.94
839.843	16052.83
840.023	4885.26
840.203	4684.56
840.383	2650.92
840.563	2405.17
840.742	3181.35
840.922	2095.93
841.102	4076.31
841.282	2917.16
841.462	3109.67
841.642	2638.64
841.822	1428.29
842.001	400.21
842.181	3556.13
842.361	3773.21
842.541	4694.8
842.72	3805.98
842.9	2706.22
843.08	3320.61
843.259	2497.33
843.439	2657.07
843.619	2126.64
843.798	2736.94
843.978	3980.06
844.157	2132.79
844.337	4274.96
844.517	2100.02
844.696	5266.18
844.876	4133.65
845.055	1440.58
845.235	3971.86
845.414	3162.92
845.593	1522.49
845.773	2046.77
845.952	357.2
846.132	1190.72
846.311	1395.52
846.49	3691.29
846.67	3902.23
846.849	2153.27
847.028	1352.51
847.208	3945.24
847.387	1663.8
847.566	5417.73
847.745	1495.87
847.924	3646.24
848.104	3773.21
848.283	3500.83
848.462	4604.69
848.641	4696.85
848.82	2728.75
848.999	5354.24
849.178	2302.77
849.358	4330.26
849.537	3040.04
849.716	1991.48
849.895	1416
850.074	4834.06
850.253	5210.89
850.432	3523.36
850.61	2853.67
850.789	2179.89
850.968	5116.68
851.147	4946.7
851.326	1817.4
851.505	3015.46
851.684	3226.4
851.863	4901.64
852.041	3134.25
852.22	2460.46
852.399	1917.75
852.578	3896.09
852.756	854.86
852.935	2366.26
853.114	4557.58
853.293	1188.68
853.471	5860.09
853.65	3478.3
853.828	2347.83
854.007	1624.89
854.186	3171.11
854.364	4565.78
854.543	3595.04
854.721	2353.97
854.9	3873.56
855.078	5221.13
855.257	2313.01
855.435	-17.58
855.614	3119.91
855.792	2153.27
855.971	2374.45
856.149	940.87
856.327	3515.17
856.506	2843.43
856.684	1950.52
856.862	1717.05
857.041	-521.38
857.219	4647.69
857.397	1694.52
857.576	2274.1
857.754	2054.97
857.932	3988.25
858.11	2474.8
858.288	2333.49
858.467	523.09
858.645	887.62
858.823	2304.82
859.001	3207.97
859.179	1162.05
859.357	1755.96
859.535	3390.24
859.713	4119.32
859.891	3480.35
860.069	6386.42
860.247	2038.58
860.425	719.69
860.603	3420.96
860.781	4676.37
860.959	2939.69
861.137	230.23
861.315	1297.22
861.493	3062.57
861.67	4406.03
861.848	4158.23
862.026	1839.93
862.204	1942.33
862.382	2044.73
862.559	2278.19
862.737	3592.99
862.915	4086.55
863.093	2079.54
863.27	4403.99
863.448	4490
863.626	2808.62
863.803	2478.9
863.981	1483.58
864.158	133.97
864.336	1626.94
864.514	1129.28
864.691	944.97
864.869	1590.08
865.046	977.73
865.224	2794.28
865.401	4184.85
865.578	1489.73
865.756	4956.94
865.933	29.52
866.111	4176.66
866.288	1147.72
866.465	1917.75
866.643	910.15
866.82	1413.95
866.997	1502.01
867.175	2534.19
867.352	1565.5
867.529	-418.98
867.706	1186.63
867.884	2550.57
868.061	2214.71
868.238	1665.85
868.415	731.98
868.592	1198.92
868.77	1162.05
868.947	3595.04
869.124	1487.68
869.301	189.27
869.478	2464.56
869.655	-738.46
869.832	2239.28
870.009	4997.9
870.186	4954.89
870.363	2462.51
870.54	2325.3
870.717	1792.83
870.894	2237.24
871.071	3113.77
871.247	404.3
871.424	1303.36
871.601	1934.14
871.778	1170.24
871.955	1946.42
872.132	2585.39
872.308	2169.65
872.485	2091.83
872.662	1459.01
872.839	3879.71
873.015	1141.57
873.192	2489.14
873.369	2419.5
873.545	1469.25
873.722	2227
873.898	2161.46
874.075	1465.15
874.252	2325.3
874.428	1848.12
874.605	2040.63
874.781	-740.51
874.958	709.45
875.134	2982.7
875.311	2732.84
875.487	2661.16
875.663	4506.38
875.84	2104.12
876.016	3066.66
876.193	2741.04
876.369	901.96
876.545	875.34
876.722	846.66
876.898	1968.95
877.074	2462.51
877.25	3042.09
877.427	7756.51
877.603	1674.04
877.779	1581.89
877.955	1753.91
878.132	4283.16
878.308	3613.47
878.484	5200.65
878.66	564.04
878.836	2290.48
879.012	1997.62
879.188	2458.42
879.364	2079.54
879.54	1436.48
879.716	258.9
879.892	2147.12
880.068	3611.42
880.244	5626.62
880.42	738.12
880.596	1559.36
880.772	1258.31
880.948	1145.67
881.124	2710.32
881.3	6822.64
881.475	2024.25
881.651	1893.18
881.827	1467.2
882.003	1706.81
882.178	-210.09
882.354	1395.52
882.53	867.14
882.706	1997.62
882.881	2370.35
883.057	494.41
883.233	1649.47
883.408	3889.95
883.584	1135.43
883.759	211.79
883.935	21.33
884.111	119.64
884.286	1334.08
884.462	-427.17
884.637	1164.1
884.813	308.05
884.988	1454.91
885.164	5112.58
885.339	373.58
885.514	3259.17
885.69	844.62
885.865	-181.42
886.04	2591.53
886.216	985.93
886.391	2695.98
886.566	1696.57
886.742	-193.7
886.917	1895.22
887.092	4166.42
887.267	-46.25
887.443	-515.23
887.618	717.64
887.793	858.95
887.968	2014.01
888.143	-42.15
888.318	1602.36
888.494	2845.48
888.669	1499.97
888.844	1569.6
889.019	1387.33
889.194	1233.73
889.369	803.66
889.544	1059.65
889.719	3074.85
889.894	4182.81
890.069	2214.71
890.243	2650.92
890.418	1229.63
890.593	551.76
890.768	1532.73
890.943	3629.85
891.118	1233.73
891.293	1817.4
891.467	475.98
891.642	4815.63
891.817	1061.7
891.992	1979.19
892.166	785.23
892.341	3154.73
892.516	1590.08
892.69	1919.8
892.865	-394.4
893.04	1456.96
893.214	3046.18
893.389	2384.69
893.563	4690.7
893.738	4956.94
893.912	1033.03
894.087	2093.88
894.261	3121.96
894.436	523.09
894.61	4385.55
894.785	1874.74
894.959	1710.91
895.134	3570.46
895.308	203.6
895.482	2761.52
895.657	461.65
895.831	803.66
896.005	7504.61
896.18	1082.18
896.354	1891.13
896.528	-365.73
896.702	1977.14
896.877	3703.58
897.051	43.86
897.225	1882.94
897.399	2020.15
897.573	729.93
897.747	1868.6
897.922	1465.15
898.096	3631.9
898.27	119.64
898.444	756.55
898.618	2132.79
898.792	1682.24
898.966	1727.29
899.14	2194.23
899.314	2204.47
899.488	3482.4
899.662	1698.62
899.835	1559.36
900.009	1715
900.183	-177.32
900.357	4846.35
900.531	445.26
900.705	928.58
900.878	-521.38
901.052	232.27
901.226	2179.89
901.4	1657.66
901.573	150.36
901.747	-310.44
901.921	723.79
902.095	1170.24
902.268	2702.12
902.442	-414.88
902.615	-1326.23
902.789	2052.92
902.963	6415.09
903.136	365.39
903.31	2941.74
903.483	-801.95
903.657	2306.87
903.83	740.17
904.004	-2004.11
904.177	547.66
904.35	-177.32
904.524	-1827.98
904.697	486.22
904.871	580.43
905.044	1504.06
905.217	5083.91
905.391	3509.02
905.564	1235.78
905.737	725.83
905.91	-273.57
906.084	-2030.73
906.257	594.76
906.43	-2163.85
906.603	193.36
906.776	-3210.36
906.949	-916.64
907.123	-1223.83
907.296	-408.74
907.469	2194.23
907.642	-613.54
907.815	1573.69
907.988	-97.45
908.161	-826.53
908.334	-1113.24
908.507	994.12
908.68	527.18
908.853	31.57
909.026	-644.26
909.199	-545.95
909.371	2396.98
909.544	1604.41
909.717	-101.55
909.89	-1334.42
910.063	-1279.13
910.236	-48.3
910.408	1069.89
910.581	-2264.2
910.754	-2139.27
910.927	-2839.68
911.099	248.66
911.272	461.65
911.445	76.63
911.617	-507.04
911.79	1688.38
911.962	-378.02
912.135	-953.5
912.308	-31.91
912.48	-1795.22
912.653	-1383.57
912.825	-898.2
912.998	-785.57
913.17	1172.29
913.343	1551.17
913.515	-511.14
913.687	-1574.03
913.86	121.68
914.032	1450.82
914.205	-437.41
914.377	-205.99
914.549	-3175.55
914.721	619.34
914.894	-1582.23
915.066	-478.37
915.238	-1559.7
915.41	1936.18
915.583	80.72
915.755	-1848.46
915.927	78.68
916.099	1153.86
916.271	-740.51
916.443	-1864.85
916.616	-2114.7
916.788	11981.47
916.96	2405.17
917.132	-4213.87
917.304	-386.21
917.476	1792.83
917.648	158.55
917.82	-3011.71
917.992	873.29
918.164	904.01
918.335	224.08
918.507	1020.74
918.679	-2499.72
918.851	1700.67
919.023	-588.96
919.195	58.2
919.366	-2239.62
919.538	-2774.14
919.71	-1574.03
919.882	-1389.72
920.053	-1862.8
920.225	-1279.13
920.397	1520.45
920.568	-1934.48
920.74	-1264.79
920.912	-1180.82
921.083	-1625.23
921.255	-1971.34
921.426	-2006.16
921.598	19.29
921.77	-920.73
921.941	-2028.68
922.113	-1864.85
922.284	1327.94
922.455	-1227.93
922.627	-2327.69
922.798	-2036.88
922.97	-1604.75
923.141	-1361.05
923.312	-3773.55
923.484	512.85
923.655	-2569.35
923.826	842.57
923.998	-1141.91
924.169	856.9
924.34	-1623.19
924.511	-33.96
924.683	-423.08
924.854	-1260.7
925.025	-138.41
925.196	1135.43
925.367	731.98
925.538	105.3
925.709	-292.01
925.881	490.32
926.052	-1399.96
926.223	-840.86
926.394	725.83
926.565	-1012.89
926.736	-3863.66
926.907	-1838.22
927.078	166.74
927.248	1966.9
927.419	645.96
927.59	-2884.73
927.761	793.42
927.932	727.88
928.103	-433.32
928.274	-1305.75
928.444	-496.8
928.615	-1238.17
928.786	-1303.7
928.957	-2086.03
929.127	-1313.94
929.298	-13.48
929.469	-1283.22
929.639	-212.14
929.81	-322.73
929.981	-134.31
930.151	295.76
930.322	3144.49
930.492	529.23
930.663	3365.67
930.833	-1752.21
931.004	-451.75
931.174	222.03
931.345	86.87
931.515	-1739.92
931.686	-541.86
931.856	1901.37
932.027	-2061.45
932.197	934.73
932.367	-1846.41
932.538	1370.94
932.708	-1092.76
932.878	-222.38
933.048	-748.7
933.219	-1193.11
933.389	1745.72
933.559	-1664.15
933.729	-1928.33
933.9	248.66
934.07	-2036.88
934.24	-2489.48
934.41	25.43
934.58	-134.31
934.75	711.5
934.92	-3069.05
935.09	119.64
935.26	-1402.01
935.43	2247.48
935.6	-824.48
935.77	572.24
935.94	271.19
936.11	-1174.68
936.28	-1709.2
936.45	895.82
936.62	33.62
936.79	488.27
936.96	-828.57
937.129	-859.29
937.299	11.09
937.469	-95.4
937.639	-130.22
937.808	-832.67
937.978	-2217.1
938.148	1137.48
938.317	-79.02
938.487	230.23
938.657	-1528.98
938.826	-1541.27
938.996	-627.87
939.166	-4402.28
939.335	-2174.09
939.505	-144.55
939.674	-1252.5
939.844	-2012.3
940.013	56.15
940.183	-2153.61
940.352	-2047.12
940.522	-595.11
940.691	-1111.19
940.86	598.86
941.03	-1016.99
941.199	-38.06
941.368	306
941.538	1198.92
941.707	-1940.62
941.876	-656.54
942.046	684.87
942.215	-134.31
942.384	-2079.88
942.553	-412.84
942.722	-726.18
942.892	1614.65
943.061	-2872.45
943.23	465.74
943.399	3416.87
943.568	-683.17
943.737	1813.31
943.906	-19.63
944.075	-1545.36
944.244	867.14
944.413	-963.74
944.582	-2663.55
944.751	-173.22
944.92	-611.49
945.089	432.97
945.258	-693.41
945.427	-539.81
945.596	-672.93
945.764	-650.4
945.933	-1193.11
946.102	1030.98
946.271	-697.5
946.44	-767.13
946.608	-1422.48
946.777	-1019.04
946.946	-738.46
947.114	2151.22
947.283	-820.38
947.452	-1756.3
947.62	-1148.06
947.789	846.66
947.958	-1211.54
948.126	267.09
948.295	189.27
948.463	-1072.28
948.632	-1172.63
948.8	-754.85
948.969	-1731.73
949.137	-890.01
949.305	-1778.83
949.474	699.21
949.642	559.95
949.811	541.52
949.979	-517.28
950.147	-2176.14
950.316	-2032.78
950.484	-2247.82
950.652	-1559.7
950.82	1317.7
950.989	-3206.27
951.157	-1658
951.325	-2200.71
951.493	1358.66
951.661	662.35
951.83	566.09
951.998	-2559.11
952.166	-695.46
952.334	-1762.45
952.502	2804.52
952.67	967.49
952.838	541.52
953.006	2446.13
953.174	140.12
953.342	293.71
953.51	-537.76
953.678	-621.73
953.846	-2718.85
954.014	-345.25
954.181	2153.27
954.349	-1576.08
954.517	-1944.72
954.685	-1881.23
954.853	-1268.89
955.02	-1688.72
955.188	-2331.78
955.356	-1447.06
955.524	1076.04
955.691	-683.17
955.859	-1868.94
956.027	-576.67
956.194	2595.63
956.362	-963.74
956.529	611.15
956.697	-1260.7
956.865	359.25
957.032	1461.06
957.2	-2397.32
957.367	-2313.35
957.535	271.19
957.702	764.75
957.87	-2176.14
958.037	183.12
958.204	-1252.5
958.372	1039.17
958.539	33.62
958.706	-461.99
958.874	3003.18
959.041	443.21
959.208	-2022.54
959.376	-1416.34
959.543	996.17
959.71	-216.23
959.877	1078.08
960.044	-347.3
960.212	2523.95
960.379	3052.33
960.546	365.39
960.713	-2587.78
960.88	-496.8
961.047	-148.65
961.214	24977.88
961.381	2218.8
961.548	-973.98
961.715	-335.01
961.882	-2305.16
962.049	-928.92
962.216	-1027.23
962.383	-1457.3
962.55	-935.07
962.717	1530.69
962.883	848.71
963.05	2511.66
963.217	514.89
963.384	-1383.57
963.551	-539.81
963.717	-1359
963.884	-85.16
964.051	480.08
964.218	1262.4
964.384	5624.58
964.551	-1987.72
964.717	-2667.65
964.884	-666.78
965.051	-1528.98
965.217	-2135.18
965.384	-2866.3
965.55	947.01
965.717	756.55
965.883	-1.19
966.05	-1416.34
966.216	1962.81
966.383	951.11
966.549	-99.5
966.716	-914.59
966.882	-1653.91
967.048	-1483.92
967.215	-2274.44
967.381	-1410.2
967.547	1682.24
967.713	2112.31
967.88	471.89
968.046	-2466.95
968.212	-906.4
968.378	1065.8
968.545	-2346.12
968.711	1057.61
968.877	-732.32
969.043	-203.94
969.209	-1997.96
969.375	1200.96
969.541	1979.19
969.707	2659.12
969.873	1010.5
970.039	-732.32
970.205	1614.65
970.371	4756.24
970.537	1518.4
970.703	240.47
970.869	-949.4
971.035	1801.02
971.201	158.55
971.367	-1682.58
971.532	-529.57
971.698	-554.15
971.864	1592.13
972.03	-2028.68
972.195	-1412.25
972.361	1954.62
972.527	-1270.94
972.693	3214.12
972.858	1633.08
973.024	-1909.9
973.19	-482.47
973.355	252.75
973.521	656.2
973.686	1266.5
973.852	-2737.28
974.017	4324.12
974.183	-2184.33
974.348	518.99
974.514	-2321.54
974.679	-259.24
974.845	-1424.53
975.01	-347.3
975.175	-2845.82
975.341	17553.99
975.506	-308.39
975.672	258.9
975.837	3873.56
976.002	-165.03
976.167	-943.26
976.333	4840.2
976.498	-959.64
976.663	-1856.65
976.828	893.77
976.993	-1158.3
977.159	213.84
977.324	500.56
977.489	3164.97
977.654	27.48
977.819	-1086.62
977.984	-521.38
978.149	2628.4
978.314	1227.59
978.479	-1254.55
978.644	-2034.83
978.809	-781.47
978.974	-1623.19
979.139	1934.14
979.304	-9.39
979.469	-844.96
979.633	-906.4
979.798	-468.13
979.963	-1641.62
980.128	2835.24
980.293	-1938.57
980.457	-1705.1
980.622	-2469
980.787	-1842.32
980.951	-185.51
981.116	-437.41
981.281	-1721.49
981.445	-177.32
981.61	809.8
981.775	-1696.91
981.939	-2688.13
982.104	1735.48
982.268	1225.54
982.433	1383.23
982.597	-1514.64
982.762	2679.6
982.926	791.37
983.091	-801.95
983.255	-2528.39
983.419	-1836.17
983.584	1467.2
983.748	-9.39
983.912	-212.14
984.077	1948.47
984.241	2079.54
984.405	-1850.51
984.57	1948.47
984.734	-636.06
984.898	-384.16
985.062	-1191.06
985.226	-1438.87
985.39	2433.84
985.555	27.48
985.719	1913.66
985.883	168.79
986.047	-1459.35
986.211	652.11
986.375	201.55
986.539	-1248.41
986.703	-1442.96
986.867	-212.14
987.031	545.61
987.195	-1064.09
987.359	-1881.23
987.523	543.57
987.686	-1985.68
987.85	-1801.36
988.014	662.35
988.178	-1150.11
988.342	764.75
988.506	510.8
988.669	-496.8
988.833	121.68
988.997	580.43
989.16	-515.23
989.324	-162.98
989.488	2638.64
989.651	248.66
989.815	3275.56
989.979	-1004.7
990.142	172.88
990.306	-666.78
990.469	1774.39
990.633	1053.51
990.796	2097.97
990.96	-701.6
991.123	719.69
991.286	1821.5
991.45	975.69
991.613	-1778.83
991.777	-2237.58
991.94	-2217.1
992.103	547.66
992.267	2853.67
992.43	-879.77
992.593	359.25
992.756	215.89
992.92	482.13
993.083	605
993.246	-423.08
993.409	-2899.07
993.572	-2149.51
993.735	-560.29
993.899	385.87
994.062	-472.23
994.225	-914.59
994.388	265.04
994.551	2366.26
994.714	-343.21
994.877	-519.33
995.04	-1635.47
995.203	-1342.61
995.366	1129.28
995.528	-1418.39
995.691	1127.24
995.854	-1574.03
996.017	-814.24
996.18	-2702.47
996.343	-543.91
996.505	1747.77
996.668	600.91
996.831	-562.34
996.994	-535.71
997.156	-343.21
997.319	-1377.43
997.482	1289.03
997.644	-1631.38
997.807	987.97
997.97	-2000.01
998.132	-1199.26
998.295	1340.22
998.457	293.71
998.62	-1201.3
998.782	-1676.43
998.945	-97.45
999.107	-85.16
999.27	60.24
999.432	-943.26
999.594	584.52
999.757	1893.18
999.919	236.37
1000.081	-2288.78
1000.244	-353.45
1000.406	-234.66
1000.568	-283.81
1000.731	1858.36
1000.893	1639.23
1001.055	1321.79
1001.217	-642.21
1001.379	-2348.17
1001.542	-1359
1001.704	3322.66
1001.866	-808.09
1002.028	1110.85
1002.19	242.51
1002.352	-1148.06
1002.514	-1498.26
1002.676	5669.63
1002.838	1557.31
1003	-476.32
1003.162	-1219.74
1003.324	2114.36
1003.486	1313.6
1003.648	-1141.91
1003.809	-597.15
1003.971	998.21
1004.133	-119.98
1004.295	-222.38
1004.457	-461.99
1004.618	559.95
1004.78	76.63
1004.942	3826.46
1005.104	43.86
1005.265	-1383.57
1005.427	940.87
1005.589	-666.78
1005.75	312.14
1005.912	2095.93
1006.073	1985.34
1006.235	152.4
1006.396	-361.64
1006.558	-261.29
1006.72	-224.42
1006.881	449.36
1007.042	-1143.96
1007.204	-2069.64
1007.365	-1268.89
1007.527	983.88
1007.688	2997.03
1007.849	-95.4
1008.011	11.09
1008.172	422.73
1008.333	787.27
1008.495	-386.21
1008.656	-2155.66
1008.817	942.92
1008.978	2607.92
1009.139	-584.87
1009.301	645.96
1009.462	-2647.17
1009.623	1030.98
1009.784	-1242.26
1009.945	246.61
1010.106	752.46
1010.267	195.41
1010.428	-1490.07
1010.589	-2327.69
1010.75	138.07
1010.911	-1207.45
1011.072	-2256.01
1011.233	916.3
1011.394	-586.91
1011.555	129.88
1011.716	600.91
1011.877	-1176.73
1012.037	385.87
1012.198	-1320.09
1012.359	531.28
1012.52	-1412.25
1012.68	-480.42
1012.841	15.19
1013.002	314.19
1013.163	-730.27
1013.323	232.27
1013.484	-1750.16
1013.644	-1303.7
1013.805	715.59
1013.966	-601.25
1014.126	2644.78
1014.287	-810.14
1014.447	-412.84
1014.608	1313.6
1014.768	-1164.44
1014.929	1178.44
1015.089	-1342.61
1015.249	242.51
1015.41	111.44
1015.57	912.2
1015.731	-2227.34
1015.891	-605.35
1016.051	691.02
1016.211	-670.88
1016.372	1446.72
1016.532	-750.75
1016.692	-365.73
1016.852	615.24
1017.013	-779.42
1017.173	-183.46
1017.333	-1107.1
1017.493	-861.34
1017.653	-1356.95
1017.813	-2135.18
1017.973	-281.77
1018.133	-1623.19
1018.293	-1801.36
1018.453	-316.58
1018.613	-2049.16
1018.773	2028.34
1018.933	-134.31
1019.093	969.54
1019.253	74.58
1019.413	1141.57
1019.573	-2190.47
1019.733	-402.6
1019.892	1936.18
1020.052	-500.9
1020.212	602.96
1020.372	293.71
1020.531	1561.41
1020.691	-287.91
1020.851	416.59
1021.01	236.37
1021.17	195.41
1021.33	-398.5
1021.489	-1678.48
1021.649	-13.48
1021.808	-165.03
1021.968	281.43
1022.127	-2770.05
1022.287	1848.12
1022.446	-539.81
1022.606	580.43
1022.765	-1338.52
1022.925	2825
1023.084	-685.22
1023.244	1780.54
1023.403	-609.44
1023.562	-988.32
1023.722	-457.89
1023.881	-773.28
1024.04	-244.9
1024.199	691.02
1024.359	-25.77
1024.518	-2245.77
1024.677	-851.1
1024.836	-939.16
1024.995	832.33
1025.154	-1137.82
1025.313	-171.18
1025.473	-1315.99
1025.632	-1402.01
1025.791	652.11
1025.95	-1352.85
1026.109	-820.38
1026.268	56.15
1026.427	1248.07
1026.586	1667.9
1026.744	-42.15
1026.903	6130.42
1027.062	-234.66
1027.221	1045.32
1027.38	273.23
1027.539	1008.45
1027.698	4801.29
1027.856	-1350.81
1028.015	617.29
1028.174	457.55
1028.333	248.66
1028.491	4133.65
1028.65	1502.01
1028.808	3992.34
1028.967	723.79
1029.126	598.86
1029.284	-1977.48
1029.443	1172.29
1029.601	-666.78
1029.76	-1600.66
1029.918	-1315.99
1030.077	666.44
1030.235	2413.36
1030.394	-808.09
1030.552	1125.19
1030.711	2796.33
1030.869	-720.03
1031.027	-760.99
1031.186	-2649.22
1031.344	-1148.06
1031.502	-351.4
1031.661	1325.89
1031.819	2296.63
1031.977	1264.45
1032.135	-1807.5
1032.293	-1035.42
1032.452	-1502.36
1032.61	3623.71
1032.768	-1827.98
1032.926	47.96
1033.084	3250.98
1033.242	-814.24
1033.4	-1653.91
1033.558	815.94
1033.716	-472.23
1033.874	-875.68
1034.032	-140.46
1034.19	-226.47
1034.348	2435.89
1034.506	-2004.11
1034.664	566.09
1034.822	-1834.13
1034.979	2384.69
1035.137	879.43
1035.295	-119.98
